  -2.5650000e+00   1.4464000e-01
  -1.6565000e+01  -1.5536000e-01
  -8.5650000e+00   2.1446000e+00
  -2.0565000e+01   1.9446000e+00
  -2.6565000e+01   3.3446000e+00
  -3.2565000e+01   3.0446000e+00
  -4.0565000e+01   4.1446000e+00
  -3.6565000e+01   4.0446000e+00
  -2.4565000e+01   5.9446000e+00
  -2.4565000e+01   2.9446000e+00
  -2.8565000e+01  -1.3554000e+00
  -1.0565000e+01  -3.4554000e+00
  -1.2565000e+01  -9.5536000e-01
  -2.4565000e+01   9.4464000e-01
  -1.4565000e+01   3.5446000e+00
  -1.2565000e+01   2.5446000e+00
  -2.0565000e+01   2.8446000e+00
  -2.6565000e+01   2.0446000e+00
  -1.6565000e+01   1.1446000e+00
  -5.6500000e-01   9.4464000e-01
  -4.5650000e+00  -1.0554000e+00
  -1.0565000e+01  -2.5554000e+00
  -2.8565000e+01  -3.9554000e+00
  -3.4565000e+01  -2.1554000e+00
  -4.6565000e+01  -2.1554000e+00
  -2.4565000e+01  -4.9554000e+00
  -5.6500000e-01  -5.1554000e+00
   8.9435000e+01  -9.2554000e+00
   2.4144000e+02  -1.4855000e+01
   4.2543000e+02  -2.5355000e+01
   5.7143000e+02  -3.2955000e+01
   7.1343000e+02  -3.8355000e+01
   8.1543000e+02  -4.4755000e+01
   8.2143000e+02  -4.6755000e+01
   5.7543000e+02  -2.7455000e+01
   2.6744000e+02   4.4446000e+00
  -3.8565000e+01   2.4245000e+01
  -2.4856000e+02   3.3945000e+01
  -2.5656000e+02   3.3545000e+01
  -2.4656000e+02   2.5645000e+01
  -2.2256000e+02   1.6245000e+01
  -2.1856000e+02   1.0745000e+01
  -2.0256000e+02   7.1446000e+00
  -2.1456000e+02   5.9446000e+00
  -2.0056000e+02   3.4446000e+00
  -1.9056000e+02   4.0446000e+00
  -1.7856000e+02   2.3446000e+00
  -1.6856000e+02   2.2446000e+00
  -1.7456000e+02   3.5446000e+00
  -1.3856000e+02   3.4446000e+00
  -1.2656000e+02   3.6446000e+00
  -1.0656000e+02   4.1446000e+00
  -1.1456000e+02   4.3446000e+00
  -1.0656000e+02   3.5446000e+00
  -1.0056000e+02   2.0446000e+00
  -9.6565000e+01   2.0446000e+00
  -7.4565000e+01   1.5446000e+00
  -6.2565000e+01   5.4464000e-01
  -7.6565000e+01   1.2446000e+00
  -6.2565000e+01   1.7446000e+00
  -5.0565000e+01   4.4464000e-01
  -6.4565000e+01   5.4464000e-01
  -3.6565000e+01  -5.5357000e-02
  -2.6565000e+01   1.1446000e+00
  -4.4565000e+01   2.9446000e+00
  -2.2565000e+01   8.4464000e-01
  -2.8565000e+01  -2.3554000e+00
  -2.4565000e+01  -2.3554000e+00
  -1.4565000e+01  -1.4554000e+00
  -6.5650000e+00  -3.1554000e+00
  -1.8565000e+01  -1.3554000e+00
   1.4350000e+00  -2.0554000e+00
  -6.5650000e+00  -1.8554000e+00
  -5.6500000e-01  -8.5536000e-01
   1.1435000e+01  -2.0554000e+00
   5.4350000e+00  -1.3554000e+00
   1.3435000e+01  -1.3554000e+00
   2.3435000e+01  -2.5536000e-01
   9.4350000e+00   4.4464000e-01
   1.4350000e+00   1.2446000e+00
   1.3435000e+01   1.2446000e+00
   1.7435000e+01  -1.5536000e-01
   3.3435000e+01  -1.5536000e-01
   4.3435000e+01  -1.8554000e+00
   3.5435000e+01  -9.5536000e-01
   3.7435000e+01   6.4464000e-01
   5.1435000e+01   7.1446000e+00
   5.1435000e+01   1.4945000e+01
   5.7435000e+01   1.2845000e+01
   5.5435000e+01   3.3446000e+00
   5.3435000e+01  -1.3255000e+01
   4.5435000e+01  -2.0055000e+01
   3.5435000e+01  -1.6155000e+01
   5.7435000e+01  -8.0554000e+00
   5.5435000e+01  -8.0554000e+00
   4.7435000e+01  -8.7554000e+00
   5.3435000e+01  -8.6554000e+00
   3.3435000e+01  -8.7554000e+00
   4.7435000e+01  -7.2554000e+00
   4.9435000e+01  -7.4554000e+00
   4.3435000e+01  -5.2554000e+00
   2.9435000e+01  -3.0554000e+00
   2.3435000e+01  -3.2554000e+00
  -1.0565000e+01  -3.9554000e+00
   1.7435000e+01  -5.8554000e+00
  -6.5650000e+00  -3.3554000e+00
  -1.2565000e+01  -1.5554000e+00
  -3.2565000e+01  -5.5357000e-02
  -3.4565000e+01   3.2446000e+00
  -3.6565000e+01   2.8446000e+00
  -5.2565000e+01   7.9446000e+00
  -7.0565000e+01   7.2446000e+00
  -7.2565000e+01   1.0545000e+01
  -7.2565000e+01   1.0945000e+01
  -6.8565000e+01   1.0045000e+01
  -9.8565000e+01   9.4446000e+00
  -4.4565000e+01   8.8446000e+00
  -8.8565000e+01   1.1045000e+01
  -7.4565000e+01   9.6446000e+00
  -6.2565000e+01   1.1445000e+01
  -5.4565000e+01   1.0845000e+01
  -5.6565000e+01   7.9446000e+00
  -6.4565000e+01   7.4446000e+00
  -4.8565000e+01   5.7446000e+00
  -5.6565000e+01   8.4446000e+00
  -1.6565000e+01   9.3446000e+00
  -4.6565000e+01   9.2446000e+00
  -3.0565000e+01   4.7446000e+00
  -2.8565000e+01   1.9446000e+00
  -3.8565000e+01   1.0446000e+00
  -3.4565000e+01   1.0446000e+00
  -2.6565000e+01   9.4464000e-01
  -2.6565000e+01   1.9446000e+00
  -1.8565000e+01   6.4464000e-01
  -1.4565000e+01   6.4464000e-01
  -4.0565000e+01  -4.5536000e-01
  -1.2565000e+01  -5.5357000e-02
  -3.4565000e+01   2.4446000e+00
  -2.2565000e+01   1.3446000e+00
  -1.4565000e+01   1.3446000e+00
  -6.5650000e+00   1.4464000e-01
  -1.4565000e+01   4.4643000e-02
  -3.0565000e+01  -1.9554000e+00
  -1.2565000e+01  -1.9554000e+00
  -5.6500000e-01  -1.7554000e+00
  -1.0565000e+01  -3.5536000e-01
  -1.4565000e+01   4.4643000e-02
  -2.0565000e+01   1.8446000e+00
  -4.5650000e+00   4.4464000e-01
  -2.6565000e+01   1.4464000e-01
  -2.4565000e+01  -1.8554000e+00
   1.4350000e+00  -1.9554000e+00
  -2.0565000e+01   3.4464000e-01
  -3.2565000e+01  -8.5536000e-01
  -2.0565000e+01  -2.4554000e+00
  -2.5650000e+00  -4.5536000e-01
   9.4350000e+00   2.0446000e+00
  -8.5650000e+00   2.2446000e+00
  -2.2565000e+01   5.4464000e-01
  -8.5650000e+00   2.4464000e-01
  -1.4565000e+01  -7.5536000e-01
  -8.5650000e+00  -1.7554000e+00
  -3.0565000e+01   1.2446000e+00
  -4.5650000e+00   7.4464000e-01
  -2.2565000e+01   2.4464000e-01
  -4.5650000e+00  -7.5536000e-01
  -1.2565000e+01  -2.0554000e+00
   1.4350000e+00  -1.0554000e+00
   9.4350000e+00  -4.0554000e+00
   1.3435000e+01  -4.4554000e+00
   2.5435000e+01  -4.4554000e+00
   4.3435000e+01  -2.4554000e+00
   4.1435000e+01  -2.8554000e+00
   2.9435000e+01  -1.5554000e+00
   4.5435000e+01  -3.4554000e+00
   3.9435000e+01  -5.2554000e+00
   4.9435000e+01  -3.7554000e+00
   1.9435000e+01  -2.5554000e+00
   9.4350000e+00  -2.2554000e+00
  -1.0565000e+01  -1.8554000e+00
   1.4350000e+00  -1.3554000e+00
  -1.2565000e+01  -9.5536000e-01
  -4.5650000e+00   4.4643000e-02
  -1.8565000e+01   1.4464000e-01
  -1.2565000e+01  -5.0554000e+00
  -3.6565000e+01  -6.0554000e+00
  -3.2565000e+01  -6.4554000e+00
  -2.6565000e+01  -5.7554000e+00
  -1.8565000e+01  -5.6554000e+00
  -2.8565000e+01  -6.5554000e+00
  -4.0565000e+01  -5.6554000e+00
  -3.8565000e+01  -1.7554000e+00
  -3.8565000e+01  -2.4554000e+00
  -1.4565000e+01  -1.3554000e+00
  -1.6565000e+01  -2.8554000e+00
  -2.8565000e+01  -7.5536000e-01
  -2.8565000e+01  -2.3554000e+00
  -3.0565000e+01  -2.2554000e+00
  -2.0565000e+01   4.4643000e-02
  -8.5650000e+00   1.9446000e+00
  -2.2565000e+01   6.5446000e+00
  -1.6565000e+01   1.2845000e+01
  -1.2565000e+01   1.5445000e+01
  -2.8565000e+01   1.0845000e+01
  -1.4565000e+01  -6.1554000e+00
  -3.0565000e+01  -1.9755000e+01
  -4.2565000e+01  -1.5355000e+01
  -3.2565000e+01  -7.2554000e+00
  -5.2565000e+01  -6.5554000e+00
  -2.5650000e+00  -7.1554000e+00
   1.4144000e+02  -1.2155000e+01
   2.9744000e+02  -1.7655000e+01
   4.6543000e+02  -2.6055000e+01
   6.1943000e+02  -3.6455000e+01
   7.2343000e+02  -4.2755000e+01
   8.2543000e+02  -4.6455000e+01
   7.6943000e+02  -4.3955000e+01
   5.1743000e+02  -2.1155000e+01
   1.9344000e+02   9.9446000e+00
  -8.0565000e+01   2.9445000e+01
  -2.4656000e+02   3.7745000e+01
  -2.7656000e+02   3.2345000e+01
  -2.3856000e+02   2.1745000e+01
  -2.3656000e+02   1.3445000e+01
  -2.2056000e+02   9.1446000e+00
  -2.1256000e+02   6.4446000e+00
  -2.3256000e+02   6.3446000e+00
  -2.2056000e+02   7.0446000e+00
  -1.9656000e+02   6.2446000e+00
  -1.7256000e+02   5.0446000e+00
  -1.8256000e+02   5.2446000e+00
  -1.5856000e+02   3.3446000e+00
  -1.6256000e+02   4.4446000e+00
  -1.4456000e+02   3.3446000e+00
  -1.0656000e+02   3.9446000e+00
  -1.3256000e+02   3.8446000e+00
  -9.8565000e+01   3.1446000e+00
  -1.2456000e+02   2.0446000e+00
  -9.4565000e+01   1.0446000e+00
  -9.0565000e+01   8.4464000e-01
  -8.8565000e+01   1.3446000e+00
  -4.6565000e+01   2.3446000e+00
  -5.8565000e+01   4.3446000e+00
  -5.8565000e+01   4.2446000e+00
  -5.6565000e+01   3.5446000e+00
  -5.0565000e+01   3.3446000e+00
  -3.2565000e+01   2.9446000e+00
  -1.8565000e+01   4.4464000e-01
  -3.0565000e+01  -5.5357000e-02
  -3.2565000e+01  -4.5536000e-01
  -2.6565000e+01  -7.5536000e-01
  -3.0565000e+01  -3.5536000e-01
  -1.0565000e+01   1.5446000e+00
  -2.0565000e+01   2.3446000e+00
  -1.8565000e+01   3.2446000e+00
   1.5435000e+01   1.8446000e+00
  -2.5650000e+00   5.2446000e+00
  -2.5650000e+00   4.3446000e+00
  -1.0565000e+01   4.7446000e+00
  -5.6500000e-01   4.6446000e+00
   3.4350000e+00   3.8446000e+00
   2.5435000e+01   2.9446000e+00
   5.4350000e+00   3.4446000e+00
   1.5435000e+01   9.4464000e-01
   1.1435000e+01   4.4464000e-01
   3.4350000e+00  -5.5357000e-02
   3.7435000e+01  -7.5536000e-01
   4.9435000e+01  -1.2554000e+00
   4.7435000e+01  -1.1554000e+00
   5.3435000e+01  -1.4554000e+00
   5.1435000e+01  -2.3554000e+00
   3.7435000e+01  -3.1554000e+00
   4.7435000e+01  -6.2554000e+00
   6.3435000e+01  -1.7554000e+00
   5.1435000e+01  -6.5536000e-01
   5.7435000e+01   6.4464000e-01
   3.3435000e+01   9.4464000e-01
   3.9435000e+01   2.4464000e-01
   3.5435000e+01  -3.5536000e-01
   5.9435000e+01   6.4464000e-01
   5.7435000e+01   4.4643000e-02
   3.5435000e+01   3.4464000e-01
   3.1435000e+01  -9.5536000e-01
   1.7435000e+01   4.4643000e-02
   1.7435000e+01   3.4464000e-01
   9.4350000e+00   6.4464000e-01
   1.4350000e+00  -5.5357000e-02
  -3.2565000e+01  -1.9554000e+00
  -6.5650000e+00  -4.2554000e+00
  -4.6565000e+01  -2.4554000e+00
  -4.0565000e+01   6.4464000e-01
  -3.8565000e+01   3.5446000e+00
  -4.6565000e+01   5.5446000e+00
  -5.2565000e+01   7.2446000e+00
  -6.2565000e+01   6.8446000e+00
  -6.4565000e+01   7.6446000e+00
  -7.8565000e+01   7.7446000e+00
  -6.8565000e+01   5.9446000e+00
  -5.2565000e+01   5.1446000e+00
  -7.8565000e+01   5.1446000e+00
  -6.4565000e+01   5.6446000e+00
  -7.4565000e+01   6.2446000e+00
  -6.6565000e+01   6.7446000e+00
  -3.6565000e+01   7.1446000e+00
  -6.4565000e+01   6.3446000e+00
  -4.2565000e+01   5.7446000e+00
  -6.0565000e+01   4.6446000e+00
  -4.0565000e+01   4.7446000e+00
  -4.6565000e+01   5.0446000e+00
  -1.4565000e+01   2.8446000e+00
  -4.0565000e+01   4.1446000e+00
  -3.8565000e+01   2.9446000e+00
  -2.0565000e+01   3.8446000e+00
  -3.8565000e+01   4.2446000e+00
  -2.8565000e+01   4.2446000e+00
  -1.2565000e+01   6.6446000e+00
  -1.4565000e+01   1.4845000e+01
  -1.6565000e+01   1.4845000e+01
   5.4350000e+00   7.3446000e+00
  -1.6565000e+01  -9.9554000e+00
  -3.2565000e+01  -1.6655000e+01
  -2.5650000e+00  -1.1855000e+01
  -1.6565000e+01  -3.0554000e+00
  -1.0565000e+01  -1.3554000e+00
  -2.5650000e+00  -1.0554000e+00
  -1.2565000e+01  -2.8554000e+00
  -3.0565000e+01  -2.5554000e+00
  -2.8565000e+01  -3.0554000e+00
  -1.4565000e+01  -2.3554000e+00
  -1.4565000e+01  -2.4554000e+00
   9.4350000e+00  -8.5536000e-01
  -6.5650000e+00  -2.5536000e-01
  -1.6565000e+01  -1.8554000e+00
  -8.5650000e+00  -2.3554000e+00
  -8.5650000e+00  -4.5536000e-01
  -1.4565000e+01  -1.1554000e+00
  -5.6500000e-01  -2.5536000e-01
   7.4350000e+00  -6.5536000e-01
  -1.2565000e+01  -2.2554000e+00
  -8.5650000e+00  -3.1554000e+00
   7.4350000e+00  -1.2554000e+00
   2.1435000e+01  -2.4554000e+00
   2.3435000e+01  -3.1554000e+00
   2.1435000e+01  -4.4554000e+00
   3.4350000e+00  -6.0554000e+00
   5.1435000e+01  -4.9554000e+00
   4.5435000e+01  -4.7554000e+00
   3.9435000e+01  -4.7554000e+00
   4.3435000e+01  -6.0554000e+00
   5.5435000e+01  -6.6554000e+00
   2.3435000e+01  -6.5554000e+00
   1.9435000e+01  -4.3554000e+00
   2.1435000e+01  -8.5536000e-01
   1.3435000e+01   1.2446000e+00
   1.3435000e+01   1.4446000e+00
  -2.5650000e+00   1.0446000e+00
   5.4350000e+00   9.4464000e-01
  -1.8565000e+01   1.7446000e+00
  -4.5650000e+00   2.3446000e+00
  -2.4565000e+01   3.4446000e+00
  -2.8565000e+01   3.5446000e+00
  -3.0565000e+01   4.1446000e+00
  -3.4565000e+01   3.9446000e+00
  -2.6565000e+01   4.4446000e+00
  -1.4565000e+01   4.0446000e+00
  -2.4565000e+01   3.6446000e+00
  -1.6565000e+01   3.7446000e+00
  -2.2565000e+01   5.3446000e+00
  -2.8565000e+01   3.4446000e+00
  -1.4565000e+01   3.9446000e+00
  -2.4565000e+01   2.7446000e+00
  -2.0565000e+01   2.2446000e+00
  -2.4565000e+01   3.6446000e+00
  -1.8565000e+01   2.8446000e+00
  -2.0565000e+01   1.5446000e+00
  -2.2565000e+01   9.4464000e-01
  -1.4565000e+01   1.6446000e+00
   5.4350000e+00   9.4464000e-01
  -2.5650000e+00  -1.0554000e+00
  -4.5650000e+00   1.4464000e-01
  -3.8565000e+01   4.4643000e-02
  -3.8565000e+01  -2.6554000e+00
  -8.5650000e+00  -5.3554000e+00
   2.5435000e+01  -6.3554000e+00
   1.6544000e+02  -1.1955000e+01
   3.1544000e+02  -1.8755000e+01
   4.9943000e+02  -2.7655000e+01
   6.4143000e+02  -3.5855000e+01
   7.4743000e+02  -4.0955000e+01
   8.3143000e+02  -4.6455000e+01
   7.2343000e+02  -4.0255000e+01
   4.8543000e+02  -1.6455000e+01
   1.4744000e+02   1.3545000e+01
  -1.2456000e+02   2.9645000e+01
  -2.5856000e+02   3.6245000e+01
  -2.8656000e+02   3.3945000e+01
  -2.4456000e+02   2.2845000e+01
  -2.3856000e+02   1.5645000e+01
  -2.1256000e+02   1.1545000e+01
  -2.1856000e+02   7.5446000e+00
  -2.0456000e+02   8.5446000e+00
  -1.8856000e+02   7.1446000e+00
  -1.8456000e+02   6.6446000e+00
  -1.7456000e+02   6.8446000e+00
  -1.5856000e+02   6.8446000e+00
  -1.5656000e+02   5.7446000e+00
  -1.5456000e+02   5.8446000e+00
  -1.1856000e+02   5.8446000e+00
  -1.2056000e+02   4.9446000e+00
  -1.1256000e+02   2.0446000e+00
  -9.2565000e+01   1.5446000e+00
  -8.4565000e+01   1.8446000e+00
  -9.0565000e+01   2.7446000e+00
  -7.6565000e+01   3.1446000e+00
  -7.0565000e+01   3.1446000e+00
  -5.0565000e+01   1.6446000e+00
  -4.2565000e+01   5.4464000e-01
  -5.4565000e+01   3.1446000e+00
  -4.6565000e+01   1.4446000e+00
  -3.2565000e+01   4.4464000e-01
  -3.8565000e+01   9.4464000e-01
  -2.4565000e+01   5.4464000e-01
  -1.8565000e+01   1.4464000e-01
  -1.6565000e+01   8.4464000e-01
  -1.0565000e+01   3.4446000e+00
  -2.4565000e+01   1.0446000e+00
  -1.0565000e+01  -5.5536000e-01
   1.4350000e+00   2.4446000e+00
   9.4350000e+00   7.6446000e+00
  -6.5650000e+00   1.7345000e+01
   1.7435000e+01   1.7845000e+01
   5.4350000e+00   1.2745000e+01
   3.4350000e+00  -2.4554000e+00
   2.1435000e+01  -1.3855000e+01
   1.9435000e+01  -1.0955000e+01
   1.3435000e+01  -1.7554000e+00
   3.5435000e+01  -2.5536000e-01
   1.9435000e+01  -5.5357000e-02
   2.5435000e+01  -7.5536000e-01
   3.1435000e+01  -1.9554000e+00
   3.1435000e+01  -3.1554000e+00
   3.9435000e+01  -3.0554000e+00
   6.7435000e+01  -1.3554000e+00
   5.3435000e+01  -5.5536000e-01
   4.3435000e+01  -1.5554000e+00
   3.9435000e+01  -1.9554000e+00
   3.5435000e+01  -5.5536000e-01
   7.7435000e+01  -9.5536000e-01
   5.9435000e+01  -5.5357000e-02
   4.9435000e+01  -6.5536000e-01
   5.3435000e+01  -1.9554000e+00
   6.9435000e+01  -2.6554000e+00
   3.7435000e+01  -2.4554000e+00
   5.5435000e+01  -2.1554000e+00
   5.5435000e+01  -2.3554000e+00
   4.3435000e+01  -9.5536000e-01
   2.9435000e+01  -2.1554000e+00
   3.9435000e+01  -3.1554000e+00
   1.5435000e+01  -3.1554000e+00
   3.3435000e+01  -2.4554000e+00
   2.3435000e+01  -2.7554000e+00
  -1.2565000e+01  -2.5536000e-01
  -6.5650000e+00  -4.5536000e-01
  -3.6565000e+01   1.7446000e+00
  -2.8565000e+01   6.4464000e-01
  -4.2565000e+01   1.8446000e+00
  -1.2565000e+01   4.4464000e-01
  -5.4565000e+01   3.6446000e+00
  -7.0565000e+01   3.5446000e+00
  -4.8565000e+01   3.5446000e+00
  -6.8565000e+01   4.5446000e+00
  -4.0565000e+01   4.0446000e+00
  -4.8565000e+01   5.9446000e+00
  -7.2565000e+01   5.7446000e+00
  -4.8565000e+01   3.8446000e+00
  -3.4565000e+01   3.3446000e+00
  -4.0565000e+01   5.7446000e+00
  -4.0565000e+01   4.8446000e+00
  -3.8565000e+01   3.6446000e+00
  -4.0565000e+01   1.3446000e+00
  -4.4565000e+01   1.3446000e+00
  -3.2565000e+01  -4.5536000e-01
  -2.2565000e+01  -8.5536000e-01
  -1.4565000e+01  -5.5357000e-02
  -2.0565000e+01  -4.5536000e-01
  -1.0565000e+01  -6.5536000e-01
  -2.0565000e+01  -1.4554000e+00
  -1.8565000e+01  -1.9554000e+00
  -8.5650000e+00  -1.0554000e+00
  -1.4565000e+01  -1.9554000e+00
  -1.2565000e+01  -5.7554000e+00
  -1.4565000e+01  -7.2554000e+00
  -1.2565000e+01  -7.7554000e+00
  -1.2565000e+01  -8.7554000e+00
  -2.5650000e+00  -1.2655000e+01
  -8.5650000e+00  -1.0855000e+01
  -6.5650000e+00  -1.0355000e+01
   3.4350000e+00  -7.2554000e+00
  -1.0565000e+01  -6.8554000e+00
   3.4350000e+00  -6.7554000e+00
  -8.5650000e+00  -6.6554000e+00
   7.4350000e+00  -5.0554000e+00
  -5.6500000e-01  -4.6554000e+00
  -1.4565000e+01  -4.8554000e+00
  -4.5650000e+00  -6.0554000e+00
  -4.5650000e+00  -7.3554000e+00
  -8.5650000e+00  -3.6554000e+00
   7.4350000e+00  -5.3554000e+00
  -2.5650000e+00  -5.5554000e+00
   1.1435000e+01  -3.6554000e+00
   5.4350000e+00  -5.9554000e+00
   9.4350000e+00  -5.0554000e+00
   1.7435000e+01  -6.4554000e+00
   2.7435000e+01  -7.1554000e+00
   2.7435000e+01  -8.4554000e+00
   3.3435000e+01  -8.4554000e+00
   2.7435000e+01  -6.7554000e+00
   4.9435000e+01  -5.4554000e+00
   3.5435000e+01  -5.2554000e+00
   5.5435000e+01  -5.6554000e+00
   1.5435000e+01  -3.8554000e+00
   3.9435000e+01  -7.0554000e+00
  -2.5650000e+00  -5.1554000e+00
   1.3435000e+01  -4.0554000e+00
   9.4350000e+00  -1.0554000e+00
  -1.0565000e+01  -1.5536000e-01
  -8.5650000e+00   2.0446000e+00
  -2.0565000e+01   2.5446000e+00
  -1.4565000e+01   1.7446000e+00
  -2.8565000e+01   2.3446000e+00
  -2.4565000e+01   2.3446000e+00
  -2.6565000e+01   3.2446000e+00
  -3.8565000e+01   3.7446000e+00
  -5.6500000e-01   3.8446000e+00
  -2.8565000e+01   6.4446000e+00
  -1.8565000e+01   5.6446000e+00
  -2.8565000e+01   3.5446000e+00
  -1.0565000e+01   4.0446000e+00
  -2.4565000e+01   3.7446000e+00
  -2.0565000e+01   3.8446000e+00
  -3.2565000e+01   5.4446000e+00
  -2.2565000e+01   1.0445000e+01
  -1.2565000e+01   1.8045000e+01
  -1.4565000e+01   1.7445000e+01
  -2.5650000e+00   8.9446000e+00
  -5.6500000e-01  -5.4554000e+00
  -2.2565000e+01  -1.2655000e+01
   3.4350000e+00  -7.3554000e+00
  -2.5650000e+00  -8.5536000e-01
  -3.0565000e+01   6.4464000e-01
  -4.4565000e+01  -1.8554000e+00
  -4.4565000e+01  -1.5554000e+00
   5.4350000e+00  -2.7554000e+00
   6.7435000e+01  -6.2554000e+00
   1.9344000e+02  -1.2155000e+01
   3.6344000e+02  -2.3155000e+01
   5.5543000e+02  -3.1055000e+01
   6.5143000e+02  -3.7955000e+01
   7.6543000e+02  -4.2655000e+01
   7.6543000e+02  -4.3455000e+01
   5.6743000e+02  -2.6655000e+01
   2.5944000e+02   2.2446000e+00
  -4.5650000e+00   2.0645000e+01
  -2.0256000e+02   3.4445000e+01
  -2.5456000e+02   3.6845000e+01
  -2.4056000e+02   2.8745000e+01
  -2.2656000e+02   1.6945000e+01
  -2.2256000e+02   1.1045000e+01
  -1.9856000e+02   7.9446000e+00
  -1.8456000e+02   4.6446000e+00
  -1.8256000e+02   6.0446000e+00
  -1.5056000e+02   5.1446000e+00
  -1.7056000e+02   6.4446000e+00
  -1.5456000e+02   5.0446000e+00
  -1.4856000e+02   6.2446000e+00
  -1.1056000e+02   4.8446000e+00
  -1.3056000e+02   4.3446000e+00
  -1.0656000e+02   4.6446000e+00
  -1.0856000e+02   2.7446000e+00
  -1.0656000e+02   3.9446000e+00
  -6.8565000e+01   2.0446000e+00
  -9.2565000e+01   2.0446000e+00
  -6.6565000e+01   7.4464000e-01
  -6.2565000e+01   5.4464000e-01
  -3.4565000e+01   3.2446000e+00
  -5.6565000e+01   4.0446000e+00
  -5.0565000e+01   2.2446000e+00
  -4.8565000e+01   2.7446000e+00
  -3.4565000e+01   4.2446000e+00
  -2.8565000e+01   2.5446000e+00
  -2.4565000e+01   2.7446000e+00
  -3.2565000e+01   3.7446000e+00
  -2.8565000e+01   3.3446000e+00
  -1.4565000e+01   3.4446000e+00
  -2.8565000e+01   1.1446000e+00
  -6.5650000e+00   6.4464000e-01
  -1.4565000e+01   2.1446000e+00
  -1.4565000e+01   3.7446000e+00
   1.4350000e+00   2.4464000e-01
   7.4350000e+00  -9.5536000e-01
  -1.0565000e+01   1.8446000e+00
   7.4350000e+00   8.4464000e-01
   1.5435000e+01  -9.5536000e-01
  -6.5650000e+00  -3.5536000e-01
   2.1435000e+01  -3.5554000e+00
   7.4350000e+00  -1.6554000e+00
   3.3435000e+01  -2.0554000e+00
   2.9435000e+01  -2.8554000e+00
   2.3435000e+01  -8.5536000e-01
   2.7435000e+01  -1.8554000e+00
   3.7435000e+01  -2.4554000e+00
   3.7435000e+01  -2.7554000e+00
   2.9435000e+01  -2.8554000e+00
   4.9435000e+01  -4.0554000e+00
   2.9435000e+01  -4.0554000e+00
   3.9435000e+01  -3.9554000e+00
   3.5435000e+01  -3.2554000e+00
   3.3435000e+01  -1.0554000e+00
   3.9435000e+01  -3.0554000e+00
   4.9435000e+01  -3.5554000e+00
   2.9435000e+01  -5.8554000e+00
   4.5435000e+01  -5.0554000e+00
   2.9435000e+01  -5.5554000e+00
   2.7435000e+01  -4.6554000e+00
   3.7435000e+01  -2.6554000e+00
   3.3435000e+01  -2.5554000e+00
   2.5435000e+01  -2.8554000e+00
   1.9435000e+01  -4.3554000e+00
  -2.5650000e+00  -2.6554000e+00
   7.4350000e+00  -3.2554000e+00
   5.4350000e+00  -7.5536000e-01
  -2.5650000e+00  -8.5536000e-01
  -2.0565000e+01  -2.0554000e+00
  -3.0565000e+01  -2.1554000e+00
  -2.8565000e+01  -5.5357000e-02
  -5.2565000e+01   2.2446000e+00
  -4.4565000e+01   2.7446000e+00
  -5.8565000e+01   3.7446000e+00
  -5.2565000e+01   2.1446000e+00
  -6.2565000e+01   4.4446000e+00
  -7.2565000e+01   3.7446000e+00
  -7.0565000e+01   6.4446000e+00
  -5.4565000e+01   3.6446000e+00
  -5.0565000e+01   4.4446000e+00
  -6.6565000e+01   3.8446000e+00
  -5.8565000e+01   2.9446000e+00
  -5.0565000e+01   4.0446000e+00
  -3.0565000e+01   4.0446000e+00
  -5.8565000e+01   5.7446000e+00
  -1.0565000e+01   1.7446000e+00
  -3.8565000e+01   9.4464000e-01
  -2.6565000e+01   5.4464000e-01
  -2.4565000e+01   3.4464000e-01
  -2.8565000e+01   3.0446000e+00
  -2.6565000e+01   4.6446000e+00
  -1.8565000e+01   1.3445000e+01
  -2.4565000e+01   1.5245000e+01
  -1.6565000e+01   9.4446000e+00
  -6.5650000e+00  -4.7554000e+00
  -3.4565000e+01  -1.7655000e+01
  -2.6565000e+01  -1.6655000e+01
  -1.4565000e+01  -1.1355000e+01
  -5.6500000e-01  -5.7554000e+00
  -2.5650000e+00  -4.8554000e+00
  -2.8565000e+01  -5.3554000e+00
  -3.2565000e+01  -6.1554000e+00
  -6.5650000e+00  -6.2554000e+00
  -4.5650000e+00  -4.4554000e+00
  -2.4565000e+01  -6.5554000e+00
  -4.5650000e+00  -7.9554000e+00
  -2.4565000e+01  -5.2554000e+00
  -2.0565000e+01  -4.7554000e+00
   1.4350000e+00  -3.3554000e+00
  -1.8565000e+01  -2.4554000e+00
   7.4350000e+00  -3.7554000e+00
  -1.2565000e+01  -4.2554000e+00
  -1.6565000e+01  -4.2554000e+00
   5.4350000e+00  -3.7554000e+00
  -2.2565000e+01  -3.5554000e+00
   3.4350000e+00  -3.2554000e+00
   7.4350000e+00  -4.2554000e+00
   3.4350000e+00  -4.2554000e+00
  -5.6500000e-01  -5.2554000e+00
  -2.5650000e+00  -5.9554000e+00
   2.9435000e+01  -7.5554000e+00
   1.3435000e+01  -8.7554000e+00
   2.1435000e+01  -9.9554000e+00
   2.3435000e+01  -8.4554000e+00
   3.5435000e+01  -7.1554000e+00
   3.7435000e+01  -6.7554000e+00
   4.5435000e+01  -3.3554000e+00
   3.5435000e+01  -4.4554000e+00
   9.4350000e+00  -2.9554000e+00
  -2.5650000e+00  -9.5536000e-01
   3.4350000e+00   6.4464000e-01
  -1.0565000e+01   1.7446000e+00
  -2.0565000e+01   1.4446000e+00
  -1.2565000e+01   4.4643000e-02
  -5.6500000e-01   1.2446000e+00
  -1.2565000e+01   1.2446000e+00
  -2.6565000e+01   2.7446000e+00
  -3.2565000e+01   5.7446000e+00
  -3.2565000e+01   5.7446000e+00
  -2.2565000e+01   4.1446000e+00
  -3.0565000e+01   7.0446000e+00
  -2.8565000e+01   5.4446000e+00
  -4.0565000e+01   4.3446000e+00
  -3.0565000e+01   4.3446000e+00
  -3.0565000e+01   4.1446000e+00
  -2.8565000e+01   6.3446000e+00
  -2.2565000e+01   4.1446000e+00
  -3.4565000e+01   6.7446000e+00
  -2.0565000e+01   4.7446000e+00
  -2.0565000e+01   3.3446000e+00
  -4.0565000e+01   3.7446000e+00
  -2.8565000e+01   1.9446000e+00
  -2.0565000e+01   3.5446000e+00
  -2.5650000e+00   4.9446000e+00
   5.4350000e+00   4.8446000e+00
  -3.2565000e+01   2.7446000e+00
  -3.6565000e+01   8.4464000e-01
  -3.4565000e+01  -6.5536000e-01
  -4.2565000e+01  -1.8554000e+00
  -3.4565000e+01  -2.9554000e+00
   2.1435000e+01  -4.0554000e+00
   1.1943000e+02  -7.6554000e+00
   2.6144000e+02  -1.4255000e+01
   4.3543000e+02  -2.5155000e+01
   5.6743000e+02  -3.0255000e+01
   7.0743000e+02  -3.6155000e+01
   7.7143000e+02  -3.9555000e+01
   6.6143000e+02  -3.1955000e+01
   3.9544000e+02  -6.8554000e+00
   9.5435000e+01   1.7245000e+01
  -1.3456000e+02   3.2745000e+01
  -2.3256000e+02   3.9145000e+01
  -2.8456000e+02   3.6045000e+01
  -2.5056000e+02   2.3645000e+01
  -2.3256000e+02   1.2845000e+01
  -2.1056000e+02   8.6446000e+00
  -1.8856000e+02   5.8446000e+00
  -1.9056000e+02   4.3446000e+00
  -1.9256000e+02   4.6446000e+00
  -1.7256000e+02   4.7446000e+00
  -1.7056000e+02   4.1446000e+00
  -1.6056000e+02   5.8446000e+00
  -1.2656000e+02   2.9446000e+00
  -1.5056000e+02   2.4464000e-01
  -1.2656000e+02   4.4464000e-01
  -1.1256000e+02   1.4464000e-01
  -1.1456000e+02  -1.5536000e-01
  -1.0856000e+02   2.6446000e+00
  -7.8565000e+01   1.5446000e+00
  -9.4565000e+01   1.8446000e+00
  -7.4565000e+01   1.4464000e-01
  -7.8565000e+01  -1.2554000e+00
  -5.4565000e+01  -4.5536000e-01
  -3.0565000e+01  -1.4554000e+00
  -3.8565000e+01   2.4464000e-01
  -6.4565000e+01  -2.6554000e+00
  -5.8565000e+01  -2.2554000e+00
  -2.4565000e+01  -2.2554000e+00
  -2.6565000e+01  -4.5536000e-01
  -2.6565000e+01   1.6446000e+00
  -3.2565000e+01  -7.5536000e-01
  -2.6565000e+01  -1.5536000e-01
  -1.6565000e+01   1.5446000e+00
   7.4350000e+00   8.8446000e+00
  -1.6565000e+01   1.7745000e+01
  -1.2565000e+01   1.4045000e+01
  -2.8565000e+01   4.3446000e+00
  -2.2565000e+01  -1.2755000e+01
  -5.6500000e-01  -1.6655000e+01
  -2.5650000e+00  -8.2554000e+00
   9.4350000e+00  -4.6554000e+00
   7.4350000e+00  -6.0554000e+00
  -2.5650000e+00  -5.9554000e+00
   9.4350000e+00  -3.8554000e+00
   1.9435000e+01  -4.4554000e+00
   1.9435000e+01  -2.1554000e+00
   2.3435000e+01  -3.5554000e+00
   2.5435000e+01  -4.0554000e+00
   2.7435000e+01  -6.5554000e+00
   4.3435000e+01  -5.6554000e+00
   2.5435000e+01  -3.6554000e+00
   2.9435000e+01  -4.3554000e+00
   2.1435000e+01  -5.7554000e+00
   2.5435000e+01  -4.6554000e+00
   5.3435000e+01  -5.9554000e+00
   5.5435000e+01  -4.1554000e+00
   3.5435000e+01  -6.2554000e+00
   3.5435000e+01  -5.1554000e+00
   3.1435000e+01  -6.7554000e+00
   4.7435000e+01  -6.0554000e+00
   5.1435000e+01  -5.6554000e+00
   1.9435000e+01  -3.4554000e+00
   3.7435000e+01  -4.6554000e+00
   3.9435000e+01  -5.5554000e+00
   2.1435000e+01  -4.4554000e+00
   2.1435000e+01  -3.7554000e+00
  -4.5650000e+00  -2.5554000e+00
  -1.4565000e+01  -1.0554000e+00
   7.4350000e+00  -2.3554000e+00
  -2.5650000e+00  -1.1554000e+00
  -6.5650000e+00  -1.3554000e+00
  -4.8565000e+01  -5.5536000e-01
  -5.2565000e+01   8.4464000e-01
  -5.0565000e+01   7.4464000e-01
  -5.8565000e+01   2.4446000e+00
  -5.6565000e+01   2.8446000e+00
  -5.2565000e+01   3.5446000e+00
  -6.2565000e+01   4.7446000e+00
  -6.6565000e+01   5.0446000e+00
  -5.6565000e+01   4.5446000e+00
  -4.8565000e+01   2.8446000e+00
  -4.4565000e+01   2.2446000e+00
  -5.8565000e+01   3.4446000e+00
  -6.0565000e+01   3.2446000e+00
  -4.8565000e+01   2.1446000e+00
  -5.0565000e+01   2.4446000e+00
  -5.4565000e+01   1.4464000e-01
  -2.4565000e+01   2.4464000e-01
  -3.8565000e+01   2.4464000e-01
  -3.2565000e+01  -2.5536000e-01
  -2.6565000e+01  -1.1554000e+00
  -8.5650000e+00  -1.3554000e+00
  -3.4565000e+01  -8.5536000e-01
  -6.5650000e+00  -1.5554000e+00
  -2.2565000e+01  -2.6554000e+00
  -1.6565000e+01  -4.0554000e+00
  -2.8565000e+01  -4.6554000e+00
  -2.2565000e+01  -3.9554000e+00
  -1.4565000e+01  -4.0554000e+00
  -1.0565000e+01  -3.6554000e+00
  -5.6500000e-01  -2.9554000e+00
  -6.5650000e+00  -5.0554000e+00
  -1.6565000e+01  -4.3554000e+00
  -2.6565000e+01  -4.8554000e+00
  -2.5650000e+00  -2.8554000e+00
  -1.8565000e+01  -3.0554000e+00
  -6.5650000e+00  -5.7554000e+00
  -2.4565000e+01  -6.7554000e+00
  -2.5650000e+00  -5.8554000e+00
  -1.8565000e+01  -4.3554000e+00
  -1.8565000e+01  -2.9554000e+00
  -4.5650000e+00  -3.9554000e+00
  -1.6565000e+01  -4.6554000e+00
  -1.2565000e+01  -4.4554000e+00
  -2.5650000e+00  -5.4554000e+00
  -1.0565000e+01  -5.0554000e+00
  -1.8565000e+01  -3.0554000e+00
   9.4350000e+00  -3.0554000e+00
  -6.5650000e+00  -2.2554000e+00
   1.4350000e+00  -3.9554000e+00
  -2.5650000e+00  -5.2554000e+00
  -1.0565000e+01  -4.6554000e+00
   1.4350000e+00  -4.4554000e+00
   1.1435000e+01  -5.6554000e+00
  -1.0565000e+01  -3.7554000e+00
  -8.5650000e+00  -4.5554000e+00
  -6.5650000e+00  -4.1554000e+00
   1.4350000e+00  -5.7554000e+00
  -2.5650000e+00  -7.7554000e+00
   2.1435000e+01  -9.2554000e+00
   3.9435000e+01  -7.6554000e+00
   3.3435000e+01  -7.5554000e+00
   4.3435000e+01  -7.3554000e+00
   3.3435000e+01  -7.8554000e+00
   4.5435000e+01  -8.2554000e+00
   5.3435000e+01  -1.0655000e+01
   5.1435000e+01  -9.4554000e+00
   2.7435000e+01  -8.4554000e+00
   1.3435000e+01  -5.1554000e+00
   3.4350000e+00  -3.2554000e+00
  -2.5650000e+00  -2.8554000e+00
   7.4350000e+00  -1.4554000e+00
  -4.5650000e+00  -1.5554000e+00
  -2.2565000e+01  -1.8554000e+00
  -4.5650000e+00   2.0446000e+00
  -2.2565000e+01   6.6446000e+00
  -4.5650000e+00   1.5245000e+01
  -3.2565000e+01   1.7545000e+01
  -2.2565000e+01   9.4446000e+00
  -3.0565000e+01  -4.3554000e+00
  -2.8565000e+01  -1.5355000e+01
  -3.6565000e+01  -1.0255000e+01
  -2.6565000e+01  -3.7554000e+00
  -1.4565000e+01  -1.5536000e-01
  -3.8565000e+01  -1.5536000e-01
   3.4350000e+00  -1.7554000e+00
  -1.8565000e+01  -1.5536000e-01
  -1.4565000e+01  -5.5357000e-02
  -2.8565000e+01  -2.0554000e+00
  -1.8565000e+01  -3.4554000e+00
  -1.0565000e+01  -2.4554000e+00
  -1.6565000e+01  -2.4554000e+00
  -1.2565000e+01  -3.5536000e-01
  -6.5650000e+00   6.4464000e-01
  -1.2565000e+01   1.1446000e+00
  -3.2565000e+01  -3.5536000e-01
  -3.4565000e+01  -3.1554000e+00
  -4.6565000e+01  -6.5554000e+00
  -2.4565000e+01  -9.8554000e+00
   5.1435000e+01  -1.0655000e+01
   1.4544000e+02  -1.3055000e+01
   2.8744000e+02  -2.0855000e+01
   4.8543000e+02  -3.0555000e+01
   6.2943000e+02  -3.7155000e+01
   7.3743000e+02  -4.2755000e+01
   8.0943000e+02  -4.6855000e+01
   6.9743000e+02  -4.0955000e+01
   4.1543000e+02  -1.1055000e+01
   1.3144000e+02   1.7345000e+01
  -1.5056000e+02   3.4745000e+01
  -2.6056000e+02   3.9645000e+01
  -2.6456000e+02   3.4745000e+01
  -2.5856000e+02   2.3645000e+01
  -2.2056000e+02   1.3345000e+01
  -2.0656000e+02   8.1446000e+00
  -2.0656000e+02   5.3446000e+00
  -1.9656000e+02   3.0446000e+00
  -1.8656000e+02   1.4446000e+00
  -2.0056000e+02   2.9446000e+00
  -1.7656000e+02   2.4464000e-01
  -1.8056000e+02   2.4464000e-01
  -1.4256000e+02  -3.5536000e-01
  -1.4656000e+02   6.4464000e-01
  -1.3856000e+02  -3.3554000e+00
  -1.2656000e+02  -2.5554000e+00
  -1.1856000e+02  -2.5554000e+00
  -9.2565000e+01  -1.8554000e+00
  -8.8565000e+01   6.4464000e-01
  -8.0565000e+01   4.4643000e-02
  -6.4565000e+01  -2.0554000e+00
  -5.8565000e+01  -2.4554000e+00
  -5.2565000e+01  -1.1554000e+00
  -5.4565000e+01  -2.3554000e+00
  -3.8565000e+01  -1.4554000e+00
  -3.6565000e+01  -3.2554000e+00
  -2.8565000e+01  -3.0554000e+00
  -3.2565000e+01  -3.3554000e+00
  -2.8565000e+01  -3.0554000e+00
  -2.8565000e+01  -3.0554000e+00
  -3.6565000e+01  -2.3554000e+00
  -6.5650000e+00  -5.9554000e+00
  -2.0565000e+01  -4.7554000e+00
  -1.2565000e+01  -4.6554000e+00
  -1.4565000e+01  -4.5554000e+00
  -6.5650000e+00  -3.0554000e+00
   2.3435000e+01  -6.2554000e+00
  -5.6500000e-01  -2.7554000e+00
   1.9435000e+01  -4.9554000e+00
   5.4350000e+00  -4.1554000e+00
   9.4350000e+00  -4.4554000e+00
   7.4350000e+00  -4.4554000e+00
   1.1435000e+01  -5.6554000e+00
   2.3435000e+01  -3.5554000e+00
   2.3435000e+01  -3.7554000e+00
   2.7435000e+01  -1.9554000e+00
   3.5435000e+01  -4.9554000e+00
   2.9435000e+01  -5.7554000e+00
   4.1435000e+01  -5.9554000e+00
   3.3435000e+01  -4.4554000e+00
   4.5435000e+01  -5.7554000e+00
   4.9435000e+01  -3.2554000e+00
   3.7435000e+01  -2.0554000e+00
   5.5435000e+01  -3.6554000e+00
   6.1435000e+01  -4.5554000e+00
   4.7435000e+01  -3.9554000e+00
   6.9435000e+01  -5.6554000e+00
   3.7435000e+01  -4.4554000e+00
   4.9435000e+01  -3.7554000e+00
   4.9435000e+01  -3.9554000e+00
   4.1435000e+01  -6.8554000e+00
   5.3435000e+01  -6.4554000e+00
   6.5435000e+01  -6.5554000e+00
   3.9435000e+01  -4.9554000e+00
   3.3435000e+01  -3.8554000e+00
   3.1435000e+01  -2.5554000e+00
   3.4350000e+00  -1.5554000e+00
   1.7435000e+01   5.4464000e-01
   5.4350000e+00  -1.5554000e+00
  -2.2565000e+01  -1.7554000e+00
  -2.4565000e+01  -2.6554000e+00
  -1.6565000e+01  -1.0554000e+00
  -3.6565000e+01  -8.5536000e-01
  -4.2565000e+01   1.4464000e-01
  -4.2565000e+01  -1.3554000e+00
  -5.2565000e+01  -3.5536000e-01
  -7.8565000e+01   1.0446000e+00
  -6.2565000e+01   2.3446000e+00
  -5.6565000e+01   6.7446000e+00
  -6.4565000e+01   1.3245000e+01
  -6.0565000e+01   1.8245000e+01
  -5.0565000e+01   1.6245000e+01
  -4.4565000e+01   8.8446000e+00
  -4.8565000e+01  -8.3554000e+00
  -4.8565000e+01  -1.3155000e+01
  -7.0565000e+01  -5.2554000e+00
  -2.6565000e+01   8.4464000e-01
  -2.8565000e+01   2.8446000e+00
  -3.8565000e+01   4.4464000e-01
  -5.6500000e-01  -5.5536000e-01
  -3.6565000e+01  -7.5536000e-01
  -1.2565000e+01  -1.1554000e+00
  -1.6565000e+01  -2.3554000e+00
  -2.8565000e+01  -2.4554000e+00
  -1.2565000e+01  -2.1554000e+00
  -1.0565000e+01  -2.2554000e+00
  -1.2565000e+01  -2.4554000e+00
  -2.4565000e+01  -3.3554000e+00
  -5.6500000e-01  -4.1554000e+00
   9.4350000e+00  -2.2554000e+00
  -6.5650000e+00  -1.6554000e+00
  -2.2565000e+01  -1.6554000e+00
  -1.4565000e+01  -4.2554000e+00
   1.4350000e+00  -3.7554000e+00
  -6.5650000e+00  -2.6554000e+00
  -5.6500000e-01  -8.5536000e-01
  -1.6565000e+01  -2.0554000e+00
   3.4350000e+00  -4.8554000e+00
  -5.6500000e-01  -3.8554000e+00
   7.4350000e+00  -2.4554000e+00
  -2.0565000e+01  -3.6554000e+00
  -5.6500000e-01  -4.0554000e+00
  -1.6565000e+01  -4.5554000e+00
  -1.8565000e+01  -3.7554000e+00
   1.3435000e+01  -3.5554000e+00
  -3.0565000e+01  -1.5554000e+00
  -2.0565000e+01  -2.8554000e+00
   1.5435000e+01  -9.5536000e-01
  -6.5650000e+00  -5.5357000e-02
  -6.5650000e+00  -9.5536000e-01
  -2.2565000e+01  -1.5536000e-01
  -1.4565000e+01   2.4464000e-01
   1.1435000e+01  -5.5357000e-02
  -4.5650000e+00   1.4464000e-01
   1.4350000e+00  -8.5536000e-01
  -1.4565000e+01  -1.5554000e+00
  -6.5650000e+00  -1.0554000e+00
  -6.5650000e+00  -1.6554000e+00
   7.4350000e+00   1.4464000e-01
   9.4350000e+00   6.4464000e-01
  -1.4565000e+01  -1.6554000e+00
   1.9435000e+01  -4.2554000e+00
   1.3435000e+01  -2.5554000e+00
   3.1435000e+01  -3.1554000e+00
   2.5435000e+01  -5.2554000e+00
   3.7435000e+01  -4.5554000e+00
   3.5435000e+01  -5.9554000e+00
   5.1435000e+01  -5.5554000e+00
   5.3435000e+01  -7.0554000e+00
   6.1435000e+01  -6.3554000e+00
   1.1435000e+01  -4.6554000e+00
   2.5435000e+01  -4.6554000e+00
  -2.5650000e+00  -2.7554000e+00
   1.1435000e+01  -2.5536000e-01
   1.4350000e+00  -5.5357000e-02
   3.4350000e+00   2.5446000e+00
  -8.5650000e+00   1.4446000e+00
  -1.0565000e+01  -1.8554000e+00
  -1.6565000e+01  -1.5536000e-01
  -1.8565000e+01   2.3446000e+00
  -1.4565000e+01   2.2446000e+00
  -3.2565000e+01   2.8446000e+00
  -4.6565000e+01   1.4446000e+00
  -1.0565000e+01   1.5446000e+00
  -1.6565000e+01   1.6446000e+00
  -1.2565000e+01   2.0446000e+00
  -2.6565000e+01   1.9446000e+00
  -2.0565000e+01   1.8446000e+00
  -1.6565000e+01   1.4464000e-01
  -3.4565000e+01   6.4464000e-01
  -2.4565000e+01   1.4446000e+00
  -2.0565000e+01   4.4464000e-01
  -1.4565000e+01   1.1446000e+00
  -1.0565000e+01   1.4446000e+00
  -1.4565000e+01  -5.5536000e-01
  -8.5650000e+00   2.4464000e-01
   1.4350000e+00   1.3446000e+00
  -5.6500000e-01  -3.5536000e-01
   1.1435000e+01   4.4643000e-02
  -3.2565000e+01  -1.3554000e+00
  -6.2565000e+01  -5.5554000e+00
  -3.4565000e+01  -7.6554000e+00
   4.1435000e+01  -7.9554000e+00
   1.3544000e+02  -9.6554000e+00
   2.8944000e+02  -1.7355000e+01
   4.5143000e+02  -2.7955000e+01
   6.2543000e+02  -3.6555000e+01
   7.3943000e+02  -4.1455000e+01
   8.6143000e+02  -4.6455000e+01
   8.0543000e+02  -4.2855000e+01
   5.3943000e+02  -1.9355000e+01
   2.2144000e+02   1.1945000e+01
  -7.8565000e+01   3.2245000e+01
  -2.4656000e+02   3.9045000e+01
  -2.6856000e+02   3.5945000e+01
  -2.3256000e+02   2.5145000e+01
  -2.3856000e+02   1.5545000e+01
  -2.3456000e+02   8.6446000e+00
  -2.4056000e+02   3.2446000e+00
  -2.2456000e+02   3.2446000e+00
  -2.1056000e+02   9.1446000e+00
  -1.7256000e+02   1.6445000e+01
  -1.8056000e+02   2.0945000e+01
  -1.8056000e+02   1.1845000e+01
  -1.6656000e+02  -2.2554000e+00
  -1.3056000e+02  -1.3955000e+01
  -1.3056000e+02  -1.1755000e+01
  -1.0656000e+02  -2.7554000e+00
  -1.2056000e+02   1.5446000e+00
  -1.0456000e+02   3.8446000e+00
  -8.6565000e+01   2.4446000e+00
  -8.6565000e+01   2.2446000e+00
  -7.6565000e+01   4.4464000e-01
  -7.0565000e+01   2.2446000e+00
  -2.6565000e+01  -1.5536000e-01
  -6.2565000e+01  -2.5536000e-01
  -3.8565000e+01  -3.5536000e-01
  -5.4565000e+01  -4.5536000e-01
  -4.4565000e+01   3.4464000e-01
  -2.0565000e+01  -6.5536000e-01
  -4.0565000e+01  -6.5536000e-01
  -3.0565000e+01  -1.5554000e+00
  -3.0565000e+01  -1.6554000e+00
  -2.0565000e+01  -2.0554000e+00
  -1.2565000e+01  -2.5536000e-01
  -8.5650000e+00   2.4464000e-01
   1.4350000e+00   9.4464000e-01
  -8.5650000e+00  -3.5536000e-01
   5.4350000e+00  -1.6554000e+00
   5.4350000e+00  -2.1554000e+00
   1.4350000e+00  -1.2554000e+00
   7.4350000e+00  -2.0554000e+00
   3.4350000e+00  -3.1554000e+00
   3.4350000e+00  -2.1554000e+00
   1.9435000e+01  -4.6554000e+00
   1.1435000e+01  -3.4554000e+00
   1.5435000e+01  -3.1554000e+00
   2.9435000e+01  -1.4554000e+00
   3.3435000e+01  -1.5554000e+00
   4.1435000e+01  -2.8554000e+00
   4.9435000e+01  -3.4554000e+00
   3.5435000e+01  -3.2554000e+00
   4.7435000e+01  -4.3554000e+00
   4.1435000e+01  -2.9554000e+00
   5.1435000e+01  -1.6554000e+00
   5.3435000e+01  -1.7554000e+00
   4.3435000e+01  -1.6554000e+00
   3.7435000e+01  -2.9554000e+00
   3.9435000e+01  -3.7554000e+00
   4.5435000e+01  -2.9554000e+00
   7.3435000e+01  -2.7554000e+00
   4.5435000e+01  -3.5536000e-01
   4.5435000e+01  -1.6554000e+00
   4.3435000e+01  -3.8554000e+00
   3.7435000e+01  -2.0554000e+00
   5.5435000e+01  -2.1554000e+00
   4.1435000e+01  -1.2554000e+00
   3.9435000e+01   5.4464000e-01
   1.7435000e+01   2.1446000e+00
   1.1435000e+01   6.4464000e-01
  -1.8565000e+01   4.4464000e-01
  -5.6500000e-01   1.4464000e-01
  -1.6565000e+01   2.3446000e+00
  -3.8565000e+01   4.3446000e+00
  -1.6565000e+01   4.1446000e+00
  -4.4565000e+01   6.2446000e+00
  -5.2565000e+01   6.4446000e+00
  -6.4565000e+01   6.8446000e+00
  -5.2565000e+01   6.7446000e+00
  -6.0565000e+01   6.2446000e+00
  -7.8565000e+01   7.3446000e+00
  -5.6565000e+01   8.6446000e+00
  -6.8565000e+01   6.6446000e+00
  -6.6565000e+01   6.3446000e+00
  -6.6565000e+01   6.1446000e+00
  -4.8565000e+01   9.1446000e+00
  -4.0565000e+01   9.6446000e+00
  -4.2565000e+01   8.6446000e+00
  -5.4565000e+01   8.0446000e+00
  -2.8565000e+01   6.3446000e+00
  -5.2565000e+01   7.3446000e+00
  -3.0565000e+01   5.8446000e+00
  -1.8565000e+01   4.0446000e+00
  -3.2565000e+01   4.5446000e+00
  -3.8565000e+01   4.1446000e+00
  -2.8565000e+01   3.3446000e+00
  -2.4565000e+01   1.3446000e+00
  -2.0565000e+01   1.8446000e+00
  -6.5650000e+00   1.2446000e+00
  -1.8565000e+01   2.1446000e+00
  -2.0565000e+01  -6.5536000e-01
  -1.8565000e+01  -1.4554000e+00
  -6.5650000e+00  -1.2554000e+00
  -1.0565000e+01  -5.5357000e-02
  -4.5650000e+00   4.4643000e-02
  -1.4565000e+01  -2.5536000e-01
  -8.5650000e+00  -5.5536000e-01
  -1.2565000e+01  -5.5357000e-02
  -1.0565000e+01  -5.5357000e-02
  -2.5650000e+00   9.4464000e-01
  -1.0565000e+01   1.8446000e+00
  -1.0565000e+01   1.1446000e+00
  -4.5650000e+00   1.5446000e+00
  -1.6565000e+01   1.3446000e+00
  -1.2565000e+01   1.1446000e+00
   3.4350000e+00  -3.5536000e-01
  -1.0565000e+01   1.1446000e+00
   5.4350000e+00   1.7446000e+00
  -2.0565000e+01   2.2446000e+00
  -2.5650000e+00   3.2446000e+00
  -1.6565000e+01   1.7446000e+00
   3.4350000e+00   3.5446000e+00
  -1.0565000e+01   9.1446000e+00
  -6.5650000e+00   1.6545000e+01
   5.4350000e+00   1.5545000e+01
  -1.2565000e+01   7.0446000e+00
  -2.6565000e+01  -9.3554000e+00
  -8.5650000e+00  -1.6055000e+01
  -1.4565000e+01  -8.8554000e+00
   7.4350000e+00  -1.4554000e+00
  -2.0565000e+01  -2.5536000e-01
  -1.0565000e+01  -8.5536000e-01
  -1.0565000e+01  -2.6554000e+00
   5.4350000e+00  -1.5554000e+00
   5.4350000e+00  -1.8554000e+00
   3.4350000e+00  -2.1554000e+00
   1.1435000e+01  -3.1554000e+00
   9.4350000e+00  -3.7554000e+00
   1.7435000e+01  -2.8554000e+00
   3.7435000e+01  -4.1554000e+00
   3.3435000e+01  -4.1554000e+00
   5.1435000e+01  -4.0554000e+00
   3.5435000e+01  -3.1554000e+00
   3.7435000e+01  -3.5554000e+00
   4.3435000e+01  -3.5554000e+00
   4.3435000e+01  -4.6554000e+00
  -6.5650000e+00  -3.0554000e+00
   1.5435000e+01  -1.5554000e+00
  -8.5650000e+00   8.4464000e-01
  -1.8565000e+01   4.0446000e+00
  -6.5650000e+00   3.3446000e+00
  -2.5650000e+00   2.5446000e+00
  -1.6565000e+01   5.2446000e+00
  -1.6565000e+01   5.8446000e+00
  -3.0565000e+01   5.9446000e+00
  -3.0565000e+01   4.7446000e+00
  -2.8565000e+01   3.1446000e+00
  -2.4565000e+01   3.3446000e+00
  -2.2565000e+01   4.5446000e+00
  -3.8565000e+01   4.1446000e+00
  -1.6565000e+01   3.1446000e+00
  -2.6565000e+01   3.7446000e+00
  -4.0565000e+01   5.5446000e+00
  -2.8565000e+01   4.5446000e+00
  -1.8565000e+01   4.3446000e+00
  -2.2565000e+01   4.0446000e+00
  -2.5650000e+00   5.9446000e+00
  -2.5650000e+00   4.5446000e+00
  -2.2565000e+01   6.4446000e+00
  -1.4565000e+01   5.6446000e+00
  -1.4565000e+01   7.4446000e+00
   3.4350000e+00   4.8446000e+00
  -6.5650000e+00   1.4446000e+00
  -1.2565000e+01   2.6446000e+00
  -3.2565000e+01   2.2446000e+00
  -2.6565000e+01   2.9446000e+00
  -6.4565000e+01   1.9446000e+00
  -1.0565000e+01  -7.5536000e-01
   9.1435000e+01  -4.3554000e+00
   2.2344000e+02  -9.2554000e+00
   4.2143000e+02  -2.1855000e+01
   5.4543000e+02  -2.9855000e+01
   6.9143000e+02  -3.4155000e+01
   8.1543000e+02  -4.0255000e+01
   8.0143000e+02  -4.0155000e+01
   5.7343000e+02  -2.3255000e+01
   2.5544000e+02   4.9446000e+00
  -3.8565000e+01   2.6145000e+01
  -2.1256000e+02   3.5945000e+01
  -2.6656000e+02   3.5045000e+01
  -2.6256000e+02   2.7245000e+01
  -2.5256000e+02   1.7645000e+01
  -2.1856000e+02   1.1045000e+01
  -2.0056000e+02   8.4446000e+00
  -1.8856000e+02   8.1446000e+00
  -1.9656000e+02   1.0745000e+01
  -1.7856000e+02   1.0345000e+01
  -1.6056000e+02   7.3446000e+00
  -1.6456000e+02   8.2446000e+00
  -1.6456000e+02   5.1446000e+00
  -1.5056000e+02   5.8446000e+00
  -1.2256000e+02   7.5446000e+00
  -9.8565000e+01   8.8446000e+00
  -1.2256000e+02   7.9446000e+00
  -1.1656000e+02   6.2446000e+00
  -9.6565000e+01   6.8446000e+00
  -8.0565000e+01   7.0446000e+00
  -7.0565000e+01   6.2446000e+00
  -7.0565000e+01   4.0446000e+00
  -6.2565000e+01   5.2446000e+00
  -7.2565000e+01   4.2446000e+00
  -4.2565000e+01   4.7446000e+00
  -5.0565000e+01   4.4446000e+00
  -4.4565000e+01   1.3446000e+00
  -3.0565000e+01   1.6446000e+00
  -1.4565000e+01   2.9446000e+00
  -2.4565000e+01   3.8446000e+00
  -3.6565000e+01   2.9446000e+00
  -3.2565000e+01   1.8446000e+00
  -2.2565000e+01   3.1446000e+00
  -6.5650000e+00   4.4446000e+00
  -8.5650000e+00   5.2446000e+00
  -2.6565000e+01   3.0446000e+00
  -2.5650000e+00   1.2446000e+00
  -8.5650000e+00   2.1446000e+00
   1.4350000e+00   1.4464000e-01
  -6.5650000e+00   7.4464000e-01
  -2.5650000e+00   2.4446000e+00
   7.4350000e+00   1.2446000e+00
   2.7435000e+01   1.4464000e-01
   1.4350000e+00  -4.5536000e-01
   1.7435000e+01  -1.5554000e+00
   1.1435000e+01   1.5446000e+00
   3.1435000e+01   5.3446000e+00
   3.7435000e+01   1.4845000e+01
   2.7435000e+01   1.6445000e+01
   4.3435000e+01   8.7446000e+00
   3.5435000e+01  -7.2554000e+00
   2.3435000e+01  -1.7155000e+01
   3.5435000e+01  -1.4055000e+01
   4.9435000e+01  -7.7554000e+00
   4.7435000e+01  -2.5554000e+00
   5.1435000e+01  -4.0554000e+00
   5.5435000e+01  -3.2554000e+00
   5.7435000e+01  -3.9554000e+00
   4.5435000e+01  -4.5554000e+00
   3.9435000e+01  -2.1554000e+00
   4.5435000e+01  -1.7554000e+00
   3.3435000e+01  -1.0554000e+00
   2.9435000e+01  -2.9554000e+00
   5.1435000e+01  -2.9554000e+00
   2.7435000e+01  -1.4554000e+00
   5.3435000e+01  -1.7554000e+00
   9.4350000e+00  -7.5536000e-01
   1.5435000e+01  -1.6554000e+00
  -4.5650000e+00  -2.7554000e+00
  -2.5650000e+00  -1.1554000e+00
  -1.6565000e+01   1.0446000e+00
  -1.0565000e+01   2.4464000e-01
  -2.2565000e+01   2.1446000e+00
  -5.8565000e+01   2.6446000e+00
  -4.4565000e+01   3.4446000e+00
  -5.6565000e+01   5.3446000e+00
  -4.8565000e+01   5.4446000e+00
  -4.2565000e+01   5.6446000e+00
  -7.0565000e+01   6.4446000e+00
  -6.2565000e+01   6.6446000e+00
  -5.4565000e+01   6.2446000e+00
  -5.8565000e+01   7.5446000e+00
  -5.2565000e+01   7.2446000e+00
  -5.6565000e+01   6.8446000e+00
  -4.4565000e+01   6.7446000e+00
  -4.8565000e+01   6.9446000e+00
  -4.8565000e+01   6.7446000e+00
  -4.2565000e+01   7.9446000e+00
  -2.8565000e+01   5.8446000e+00
  -2.6565000e+01   6.3446000e+00
  -2.8565000e+01   6.7446000e+00
  -2.2565000e+01   5.3446000e+00
  -2.8565000e+01   3.2446000e+00
  -3.2565000e+01   1.9446000e+00
  -1.2565000e+01   1.8446000e+00
  -1.2565000e+01   1.4446000e+00
  -2.0565000e+01   2.5446000e+00
  -1.8565000e+01   1.8446000e+00
  -6.5650000e+00   2.0446000e+00
  -2.5650000e+00   3.8446000e+00
  -4.5650000e+00   3.4446000e+00
   1.3435000e+01   1.8446000e+00
  -1.2565000e+01   1.7446000e+00
   5.4350000e+00   1.4446000e+00
   3.4350000e+00   5.4464000e-01
  -4.5650000e+00   1.6446000e+00
  -1.2565000e+01   9.4464000e-01
  -5.6500000e-01  -5.5357000e-02
   7.4350000e+00   4.4464000e-01
   1.4350000e+00   3.4464000e-01
   1.5435000e+01   1.4464000e-01
  -1.4565000e+01   2.4446000e+00
  -6.5650000e+00   7.4464000e-01
  -6.5650000e+00   4.4643000e-02
   3.4350000e+00  -1.2554000e+00
  -4.5650000e+00   4.4464000e-01
  -2.5650000e+00   7.4464000e-01
   3.4350000e+00   4.4643000e-02
  -6.5650000e+00   4.4464000e-01
   1.1435000e+01   1.2446000e+00
  -2.5650000e+00   6.4464000e-01
  -4.5650000e+00   2.4464000e-01
  -6.5650000e+00  -5.5357000e-02
   1.4350000e+00   7.4464000e-01
  -1.0565000e+01   1.2446000e+00
  -2.5650000e+00   1.2446000e+00
   3.4350000e+00   3.0446000e+00
   2.1435000e+01   2.5446000e+00
   1.4350000e+00   2.1446000e+00
   9.4350000e+00   1.5446000e+00
  -2.2565000e+01   1.6446000e+00
   1.5435000e+01   1.4464000e-01
   5.4350000e+00  -3.5536000e-01
   3.3435000e+01   1.5446000e+00
  -8.5650000e+00   2.7446000e+00
  -2.5650000e+00   5.4464000e-01
  -2.5650000e+00   6.4464000e-01
   1.4350000e+00   8.4464000e-01
   1.7435000e+01   1.4446000e+00
   9.4350000e+00  -1.0554000e+00
   1.5435000e+01   4.4643000e-02
  -1.8565000e+01  -1.5536000e-01
   2.3435000e+01  -9.5536000e-01
   1.3435000e+01   1.2446000e+00
   2.5435000e+01   6.4464000e-01
   1.3435000e+01  -3.5536000e-01
   1.5435000e+01  -3.2554000e+00
   3.3435000e+01  -3.7554000e+00
   2.7435000e+01  -3.2554000e+00
   4.9435000e+01  -3.5554000e+00
   6.5435000e+01  -3.2554000e+00
   5.7435000e+01  -3.4554000e+00
   4.3435000e+01  -3.6554000e+00
   3.9435000e+01  -2.4554000e+00
   1.7435000e+01   5.4464000e-01
   9.4350000e+00   2.3446000e+00
   1.7435000e+01   6.1446000e+00
   5.4350000e+00   1.3745000e+01
   7.4350000e+00   2.1445000e+01
  -5.6500000e-01   1.7545000e+01
  -1.8565000e+01   7.3446000e+00
  -1.0565000e+01  -9.2554000e+00
  -4.5650000e+00  -1.3555000e+01
  -1.4565000e+01  -3.8554000e+00
  -2.2565000e+01   3.2446000e+00
  -2.5650000e+00   5.6446000e+00
  -2.8565000e+01   6.3446000e+00
  -1.8565000e+01   3.0446000e+00
  -8.5650000e+00   3.3446000e+00
  -3.2565000e+01   4.1446000e+00
  -1.4565000e+01   4.5446000e+00
  -6.5650000e+00   4.6446000e+00
  -2.4565000e+01   3.4446000e+00
  -1.4565000e+01   2.3446000e+00
  -2.5650000e+00   1.2446000e+00
  -1.8565000e+01   2.2446000e+00
  -5.6500000e-01   2.3446000e+00
  -1.2565000e+01   2.1446000e+00
  -1.0565000e+01   1.5446000e+00
  -1.0565000e+01   9.4464000e-01
  -2.5650000e+00   2.0446000e+00
  -8.5650000e+00   2.2446000e+00
  -2.6565000e+01   2.9446000e+00
  -5.4565000e+01   1.3446000e+00
  -3.8565000e+01   7.4464000e-01
   3.4350000e+00  -1.6554000e+00
   8.1435000e+01  -2.8554000e+00
   2.2544000e+02  -1.0655000e+01
   3.9744000e+02  -1.9255000e+01
   5.4543000e+02  -2.7855000e+01
   6.6143000e+02  -3.1355000e+01
   7.6543000e+02  -3.9955000e+01
   7.2743000e+02  -4.0655000e+01
   5.1943000e+02  -2.1855000e+01
   2.2544000e+02   7.0446000e+00
  -5.2565000e+01   2.6345000e+01
  -2.0456000e+02   3.5645000e+01
  -2.3656000e+02   3.4545000e+01
  -2.4656000e+02   2.6645000e+01
  -2.3056000e+02   1.6045000e+01
  -2.0656000e+02   1.0345000e+01
  -1.9456000e+02   8.1446000e+00
  -1.6256000e+02   6.6446000e+00
  -2.0056000e+02   7.2446000e+00
  -1.6856000e+02   6.0446000e+00
  -1.6256000e+02   5.5446000e+00
  -1.4256000e+02   6.3446000e+00
  -1.5056000e+02   3.5446000e+00
  -1.3056000e+02   2.2446000e+00
  -1.1856000e+02   4.0446000e+00
  -1.0656000e+02   3.1446000e+00
  -9.0565000e+01   2.4446000e+00
  -8.2565000e+01   1.2446000e+00
  -9.4565000e+01   2.5446000e+00
  -6.6565000e+01   3.8446000e+00
  -7.8565000e+01   3.4446000e+00
  -6.8565000e+01   2.2446000e+00
  -4.6565000e+01   6.4464000e-01
  -6.0565000e+01   9.4464000e-01
  -3.8565000e+01   8.4464000e-01
  -2.6565000e+01   2.4464000e-01
  -4.0565000e+01   1.2446000e+00
  -2.6565000e+01   1.9446000e+00
  -2.8565000e+01   1.0446000e+00
  -1.0565000e+01   2.3446000e+00
  -2.2565000e+01   2.8446000e+00
  -2.8565000e+01  -2.5536000e-01
  -2.6565000e+01   4.4464000e-01
  -2.2565000e+01   1.6446000e+00
   5.4350000e+00   1.4446000e+00
  -1.0565000e+01   1.8446000e+00
   9.4350000e+00   2.0446000e+00
  -6.5650000e+00   4.0446000e+00
   1.1435000e+01   3.5446000e+00
  -4.5650000e+00   2.2446000e+00
   7.4350000e+00   2.8446000e+00
   1.5435000e+01   6.4464000e-01
   3.1435000e+01   1.3446000e+00
   1.3435000e+01   2.1446000e+00
   1.5435000e+01   1.2446000e+00
   1.3435000e+01   3.4464000e-01
   2.1435000e+01   2.4464000e-01
   2.3435000e+01   4.4464000e-01
   3.7435000e+01  -1.9554000e+00
   2.5435000e+01  -1.5554000e+00
   3.1435000e+01  -2.5554000e+00
   3.1435000e+01  -4.7554000e+00
   4.1435000e+01  -4.0554000e+00
   5.7435000e+01  -3.9554000e+00
   5.9435000e+01  -3.8554000e+00
   4.3435000e+01  -4.2554000e+00
   2.9435000e+01  -4.1554000e+00
   6.5435000e+01  -7.2554000e+00
   2.5435000e+01  -3.8554000e+00
   3.5435000e+01  -4.7554000e+00
   5.5435000e+01  -5.1554000e+00
   3.9435000e+01  -3.9554000e+00
   5.1435000e+01  -2.5554000e+00
   2.5435000e+01  -4.2554000e+00
   2.7435000e+01  -3.8554000e+00
   4.3435000e+01  -3.7554000e+00
   3.9435000e+01  -2.4554000e+00
   2.5435000e+01  -2.4554000e+00
   5.4350000e+00  -1.4554000e+00
  -6.5650000e+00  -2.0554000e+00
   1.4350000e+00  -2.0554000e+00
  -1.0565000e+01  -1.3554000e+00
  -3.0565000e+01   1.9446000e+00
  -3.4565000e+01   8.4446000e+00
  -3.6565000e+01   1.7345000e+01
  -3.8565000e+01   2.0045000e+01
  -3.8565000e+01   1.4945000e+01
  -5.0565000e+01   2.8446000e+00
  -4.6565000e+01  -1.0855000e+01
  -5.0565000e+01  -7.5554000e+00
  -5.6565000e+01   2.1446000e+00
  -6.2565000e+01   4.9446000e+00
  -5.2565000e+01   6.2446000e+00
  -4.8565000e+01   5.5446000e+00
  -5.2565000e+01   3.4446000e+00
  -3.2565000e+01   1.3446000e+00
  -4.0565000e+01   2.4446000e+00
  -4.0565000e+01   2.0446000e+00
  -6.5650000e+00   2.8446000e+00
  -2.6565000e+01   2.4446000e+00
  -1.2565000e+01   1.4446000e+00
  -3.8565000e+01   1.0446000e+00
  -1.2565000e+01  -2.5536000e-01
  -1.0565000e+01   6.4464000e-01
  -2.6565000e+01   6.4464000e-01
  -2.6565000e+01   5.4464000e-01
  -2.4565000e+01   3.4464000e-01
  -2.8565000e+01   4.4643000e-02
   3.4350000e+00   4.4643000e-02
  -1.8565000e+01   3.4464000e-01
  -8.5650000e+00  -9.5536000e-01
  -2.4565000e+01  -6.5536000e-01
  -5.6500000e-01  -3.0554000e+00
  -1.2565000e+01   5.4464000e-01
  -1.0565000e+01  -1.0554000e+00
  -1.4565000e+01  -6.5536000e-01
  -8.5650000e+00  -7.5536000e-01
  -1.0565000e+01  -3.5536000e-01
  -1.0565000e+01  -1.5536000e-01
  -2.4565000e+01  -3.5554000e+00
   7.4350000e+00  -3.0554000e+00
  -2.8565000e+01  -1.7554000e+00
   1.4350000e+00  -9.5536000e-01
  -1.2565000e+01  -1.1554000e+00
  -4.5650000e+00  -1.4554000e+00
  -8.5650000e+00  -3.5536000e-01
   1.4350000e+00  -3.5536000e-01
  -1.8565000e+01  -3.5536000e-01
  -1.6565000e+01   4.4464000e-01
  -1.4565000e+01  -3.5536000e-01
  -1.6565000e+01   4.4643000e-02
   1.3435000e+01  -1.8554000e+00
   7.4350000e+00  -1.8554000e+00
  -1.8565000e+01  -1.4554000e+00
   9.4350000e+00  -2.6554000e+00
  -8.5650000e+00  -1.0554000e+00
   9.4350000e+00  -6.5536000e-01
  -8.5650000e+00  -5.5536000e-01
   9.4350000e+00   1.6446000e+00
   1.3435000e+01   1.1446000e+00
  -1.4565000e+01  -3.5536000e-01
  -2.4565000e+01  -1.2554000e+00
  -1.8565000e+01  -1.9554000e+00
  -4.5650000e+00  -1.5554000e+00
   1.1435000e+01  -1.4554000e+00
   1.3435000e+01   1.4464000e-01
   5.4350000e+00  -5.5357000e-02
  -2.5650000e+00  -2.8554000e+00
  -2.5650000e+00   4.4464000e-01
   5.4350000e+00   9.4464000e-01
   5.4350000e+00  -2.5536000e-01
  -8.5650000e+00  -7.5536000e-01
   3.4350000e+00  -1.5536000e-01
   9.4350000e+00   1.4446000e+00
  -4.5650000e+00  -3.5536000e-01
  -8.5650000e+00  -1.7554000e+00
   1.4350000e+00  -2.1554000e+00
   3.1435000e+01  -3.3554000e+00
  -2.5650000e+00  -2.5554000e+00
   2.9435000e+01  -3.4554000e+00
   1.1435000e+01  -2.0554000e+00
   3.7435000e+01  -1.1554000e+00
   4.9435000e+01  -1.8554000e+00
   4.5435000e+01  -9.5536000e-01
   3.5435000e+01  -1.5554000e+00
   2.7435000e+01  -1.0554000e+00
   9.4350000e+00   2.1446000e+00
   1.5435000e+01   3.8446000e+00
  -1.0565000e+01   2.3446000e+00
  -1.2565000e+01   9.4464000e-01
  -4.5650000e+00  -1.5554000e+00
  -5.6500000e-01   1.2446000e+00
   1.1435000e+01   2.1446000e+00
  -8.5650000e+00   2.1446000e+00
  -2.8565000e+01   1.5446000e+00
  -2.5650000e+00   1.3446000e+00
   1.4350000e+00   3.5446000e+00
  -2.4565000e+01   5.3446000e+00
  -3.4565000e+01   1.9446000e+00
  -2.8565000e+01   2.0446000e+00
  -3.0565000e+01   3.1446000e+00
  -1.6565000e+01   2.3446000e+00
  -3.0565000e+01   2.7446000e+00
  -3.2565000e+01   2.2446000e+00
  -1.2565000e+01   3.3446000e+00
   1.4350000e+00   4.8446000e+00
  -2.8565000e+01   6.5446000e+00
  -3.4565000e+01   5.6446000e+00
  -6.5650000e+00   4.1446000e+00
  -2.6565000e+01   3.9446000e+00
  -1.2565000e+01   2.0446000e+00
  -1.2565000e+01   8.4464000e-01
  -1.2565000e+01   2.5446000e+00
  -1.4565000e+01   1.9446000e+00
  -2.6565000e+01   5.3446000e+00
  -5.2565000e+01   1.0045000e+01
  -3.0565000e+01   1.5145000e+01
  -2.0565000e+01   1.0245000e+01
   4.3435000e+01  -1.1554000e+00
   1.8144000e+02  -2.2955000e+01
   3.4144000e+02  -3.6555000e+01
   5.1543000e+02  -3.8455000e+01
   6.3143000e+02  -3.7855000e+01
   7.3343000e+02  -4.1355000e+01
   7.6143000e+02  -4.2955000e+01
   5.9143000e+02  -3.2455000e+01
   3.1344000e+02  -7.1554000e+00
   2.7435000e+01   1.5345000e+01
  -1.8856000e+02   3.0445000e+01
  -2.6256000e+02   3.6045000e+01
  -2.5656000e+02   2.8845000e+01
  -2.0856000e+02   1.9445000e+01
  -1.9856000e+02   1.2145000e+01
  -1.9856000e+02   6.0446000e+00
  -1.9856000e+02   4.9446000e+00
  -1.9256000e+02   4.8446000e+00
  -1.8056000e+02   4.3446000e+00
  -1.8256000e+02   2.4446000e+00
  -1.7256000e+02   2.1446000e+00
  -1.6256000e+02   2.6446000e+00
  -1.4256000e+02   2.9446000e+00
  -1.2856000e+02   3.1446000e+00
  -1.2256000e+02   3.4446000e+00
  -1.1456000e+02   2.3446000e+00
  -1.1656000e+02   1.6446000e+00
  -9.0565000e+01   1.4446000e+00
  -8.8565000e+01   2.2446000e+00
  -7.2565000e+01   2.1446000e+00
  -7.2565000e+01   2.4464000e-01
  -6.4565000e+01   8.4464000e-01
  -5.4565000e+01   1.4446000e+00
  -5.4565000e+01   2.0446000e+00
  -5.6565000e+01   9.4464000e-01
  -5.2565000e+01  -1.0554000e+00
  -5.8565000e+01  -1.0554000e+00
  -3.4565000e+01  -1.6554000e+00
  -2.4565000e+01  -7.5536000e-01
  -2.4565000e+01  -1.7554000e+00
  -3.2565000e+01  -1.5554000e+00
  -3.2565000e+01  -1.9554000e+00
  -1.4565000e+01  -1.2554000e+00
  -2.6565000e+01  -8.5536000e-01
  -6.5650000e+00   4.4643000e-02
   1.4350000e+00  -1.6554000e+00
  -1.0565000e+01  -1.5536000e-01
  -1.6565000e+01  -1.5536000e-01
  -2.5650000e+00   8.4464000e-01
  -2.5650000e+00   1.4446000e+00
  -5.6500000e-01   1.6446000e+00
  -2.5650000e+00   1.0446000e+00
   3.3435000e+01  -1.1554000e+00
   1.4350000e+00   2.2446000e+00
   9.4350000e+00   1.1446000e+00
   9.4350000e+00   6.4464000e-01
  -2.5650000e+00  -2.1554000e+00
   2.5435000e+01  -3.8554000e+00
   2.9435000e+01  -2.7554000e+00
   3.3435000e+01  -2.9554000e+00
   1.9435000e+01  -2.9554000e+00
   3.7435000e+01  -3.4554000e+00
   3.3435000e+01  -3.1554000e+00
   2.7435000e+01  -4.5554000e+00
   4.5435000e+01  -2.6554000e+00
   4.3435000e+01  -2.5554000e+00
   4.5435000e+01  -3.1554000e+00
   3.5435000e+01  -2.3554000e+00
   2.5435000e+01  -3.5554000e+00
   3.3435000e+01  -3.4554000e+00
   4.3435000e+01  -2.6554000e+00
   1.5435000e+01  -2.0554000e+00
   1.9435000e+01  -2.4554000e+00
   1.1435000e+01  -1.9554000e+00
   2.7435000e+01  -1.1554000e+00
   2.5435000e+01   5.4464000e-01
   2.3435000e+01   1.1446000e+00
   1.4350000e+00   2.4464000e-01
  -4.5650000e+00  -1.0554000e+00
  -1.0565000e+01  -4.5536000e-01
  -1.0565000e+01   7.4464000e-01
  -2.2565000e+01   2.7446000e+00
  -3.0565000e+01   2.7446000e+00
  -3.2565000e+01   3.5446000e+00
  -3.4565000e+01   5.5446000e+00
  -6.8565000e+01   2.0446000e+00
  -7.0565000e+01   1.1446000e+00
  -6.2565000e+01   3.7446000e+00
  -6.4565000e+01   4.4446000e+00
  -5.8565000e+01   4.1446000e+00
  -8.4565000e+01   3.1446000e+00
  -9.0565000e+01   3.4446000e+00
  -5.8565000e+01   3.0446000e+00
  -5.0565000e+01   4.8446000e+00
  -3.6565000e+01   4.4446000e+00
  -5.6565000e+01   4.5446000e+00
  -4.4565000e+01   4.4643000e-02
  -4.2565000e+01  -1.5554000e+00
  -3.2565000e+01  -1.5554000e+00
  -3.0565000e+01  -1.6554000e+00
  -4.0565000e+01  -3.5536000e-01
  -3.4565000e+01  -1.1554000e+00
  -2.6565000e+01  -3.3554000e+00
  -2.8565000e+01  -3.5554000e+00
  -3.4565000e+01  -3.7554000e+00
  -4.0565000e+01  -4.2554000e+00
  -1.4565000e+01  -2.9554000e+00
  -3.2565000e+01   3.4464000e-01
  -1.2565000e+01   5.9446000e+00
  -3.8565000e+01   1.4945000e+01
  -2.4565000e+01   1.2545000e+01
  -2.6565000e+01   6.2446000e+00
  -2.0565000e+01  -8.6554000e+00
  -1.6565000e+01  -1.7655000e+01
  -2.8565000e+01  -1.2155000e+01
  -1.4565000e+01  -6.0554000e+00
  -1.8565000e+01  -5.6554000e+00
  -4.5650000e+00  -5.5554000e+00
  -1.6565000e+01  -5.5554000e+00
  -2.2565000e+01  -5.4554000e+00
  -1.6565000e+01  -3.9554000e+00
  -5.6500000e-01  -3.7554000e+00
  -3.0565000e+01  -1.8554000e+00
  -2.8565000e+01  -2.1554000e+00
  -2.4565000e+01  -1.5554000e+00
  -1.0565000e+01  -7.5536000e-01
  -2.0565000e+01  -1.3554000e+00
  -2.4565000e+01  -2.6554000e+00
  -1.6565000e+01  -3.1554000e+00
  -1.6565000e+01  -2.6554000e+00
  -1.0565000e+01  -1.8554000e+00
  -4.0565000e+01  -5.5536000e-01
  -6.5650000e+00  -6.5536000e-01
  -1.8565000e+01  -1.5554000e+00
  -2.6565000e+01  -7.5536000e-01
  -8.5650000e+00  -1.2554000e+00
  -3.2565000e+01  -7.5536000e-01
  -4.5650000e+00  -2.0554000e+00
   1.1435000e+01  -2.7554000e+00
  -3.6565000e+01  -1.7554000e+00
  -1.2565000e+01  -2.5554000e+00
  -1.6565000e+01  -2.1554000e+00
  -1.8565000e+01  -5.5536000e-01
  -5.6500000e-01  -1.9554000e+00
  -1.8565000e+01   1.4464000e-01
  -1.4565000e+01  -1.7554000e+00
  -1.8565000e+01  -2.4554000e+00
  -8.5650000e+00  -2.9554000e+00
  -2.5650000e+00  -3.8554000e+00
  -5.6500000e-01  -4.8554000e+00
  -8.5650000e+00  -4.3554000e+00
   1.1435000e+01  -3.5554000e+00
   3.4350000e+00  -5.0554000e+00
   1.1435000e+01  -7.4554000e+00
   1.9435000e+01  -5.5554000e+00
   2.7435000e+01  -7.3554000e+00
   4.9435000e+01  -6.7554000e+00
   4.7435000e+01  -7.3554000e+00
   4.5435000e+01  -6.6554000e+00
   3.5435000e+01  -4.7554000e+00
   4.3435000e+01  -2.8554000e+00
   2.9435000e+01  -1.4554000e+00
  -4.5650000e+00  -7.5536000e-01
  -1.2565000e+01  -2.1554000e+00
  -1.2565000e+01  -4.5536000e-01
  -8.5650000e+00   6.4464000e-01
  -1.0565000e+01   2.3446000e+00
  -1.4565000e+01   1.4464000e-01
  -1.4565000e+01  -1.1554000e+00
  -2.0565000e+01  -2.4554000e+00
  -6.5650000e+00  -8.5536000e-01
  -4.8565000e+01   2.0446000e+00
  -2.6565000e+01   1.7446000e+00
  -5.0565000e+01   3.1446000e+00
  -2.6565000e+01  -4.5536000e-01
  -3.4565000e+01   6.4464000e-01
  -3.8565000e+01   1.5446000e+00
  -3.6565000e+01   1.8446000e+00
  -2.6565000e+01   2.1446000e+00
  -3.0565000e+01   2.4464000e-01
  -2.2565000e+01  -4.5536000e-01
  -2.6565000e+01  -2.1554000e+00
  -3.0565000e+01  -1.5536000e-01
  -1.4565000e+01   6.4464000e-01
  -2.4565000e+01   3.2446000e+00
  -1.4565000e+01   1.7446000e+00
  -1.6565000e+01   4.4643000e-02
  -2.5650000e+00   5.4464000e-01
  -2.5650000e+00   5.4464000e-01
  -2.2565000e+01  -1.5536000e-01
  -4.2565000e+01   2.1446000e+00
  -5.0565000e+01   1.4446000e+00
  -2.0565000e+01   9.4464000e-01
  -6.5650000e+00  -1.6554000e+00
   5.3435000e+01  -5.2554000e+00
   1.9944000e+02  -1.1055000e+01
   3.7744000e+02  -2.1555000e+01
   5.5943000e+02  -3.3155000e+01
   6.7143000e+02  -3.9555000e+01
   7.7543000e+02  -4.5655000e+01
   8.0943000e+02  -4.9755000e+01
   6.1743000e+02  -3.6855000e+01
   3.1744000e+02  -8.7554000e+00
   2.9435000e+01   1.7245000e+01
  -1.9256000e+02   3.2245000e+01
  -2.6056000e+02   3.7145000e+01
  -2.6056000e+02   3.0045000e+01
  -2.2856000e+02   1.8645000e+01
  -2.2656000e+02   9.4446000e+00
  -2.3456000e+02   7.8446000e+00
  -2.0656000e+02   4.8446000e+00
  -2.0256000e+02   5.6446000e+00
  -2.0856000e+02   6.5446000e+00
  -1.8256000e+02   5.2446000e+00
  -1.9056000e+02   4.5446000e+00
  -1.5256000e+02   4.3446000e+00
  -1.5256000e+02   5.2446000e+00
  -1.4656000e+02   5.2446000e+00
  -1.1856000e+02   4.7446000e+00
  -1.1856000e+02   8.4446000e+00
  -1.1056000e+02   1.7645000e+01
  -9.0565000e+01   1.9745000e+01
  -9.4565000e+01   1.6245000e+01
  -9.8565000e+01   2.0446000e+00
  -7.2565000e+01  -1.4555000e+01
  -8.0565000e+01  -1.3055000e+01
  -5.6565000e+01  -4.9554000e+00
  -6.0565000e+01   9.4464000e-01
  -4.2565000e+01   1.0446000e+00
  -4.4565000e+01  -6.5536000e-01
  -3.4565000e+01   1.4464000e-01
  -3.4565000e+01   3.4464000e-01
  -3.4565000e+01  -2.8554000e+00
  -3.0565000e+01  -1.4554000e+00
  -2.8565000e+01  -1.0554000e+00
  -2.2565000e+01   2.4464000e-01
  -2.4565000e+01   2.4464000e-01
  -4.5650000e+00   1.5446000e+00
  -1.6565000e+01  -6.5536000e-01
  -1.4565000e+01  -1.3554000e+00
  -1.8565000e+01  -1.3554000e+00
   1.1435000e+01  -2.7554000e+00
  -5.6500000e-01   1.4446000e+00
  -6.5650000e+00   1.5446000e+00
   9.4350000e+00   1.4446000e+00
   2.7435000e+01  -5.5357000e-02
   1.3435000e+01   4.4643000e-02
   9.4350000e+00  -2.8554000e+00
   1.9435000e+01  -3.8554000e+00
   2.5435000e+01  -3.9554000e+00
   1.5435000e+01  -3.7554000e+00
   2.7435000e+01  -2.0554000e+00
   2.5435000e+01  -1.8554000e+00
   4.5435000e+01  -4.3554000e+00
   5.1435000e+01  -2.0554000e+00
   3.7435000e+01  -1.5554000e+00
   5.3435000e+01  -3.0554000e+00
   5.5435000e+01  -4.0554000e+00
   5.3435000e+01  -3.9554000e+00
   4.1435000e+01  -4.1554000e+00
   6.3435000e+01  -3.6554000e+00
   4.1435000e+01  -1.7554000e+00
   4.1435000e+01  -3.2554000e+00
   2.7435000e+01  -4.8554000e+00
   2.9435000e+01  -5.4554000e+00
   5.3435000e+01  -4.3554000e+00
   3.9435000e+01  -2.8554000e+00
   2.5435000e+01  -3.8554000e+00
   3.7435000e+01  -4.0554000e+00
   2.3435000e+01  -1.7554000e+00
   3.4350000e+00  -2.1554000e+00
   5.4350000e+00  -1.1554000e+00
   7.4350000e+00  -1.1554000e+00
  -2.5650000e+00   7.4464000e-01
  -1.4565000e+01   1.9446000e+00
  -1.8565000e+01   1.4446000e+00
  -4.2565000e+01   2.4446000e+00
  -2.8565000e+01  -2.5536000e-01
  -4.4565000e+01   1.5446000e+00
  -4.0565000e+01   2.7446000e+00
  -6.6565000e+01   3.5446000e+00
  -5.2565000e+01   5.3446000e+00
  -6.4565000e+01   4.3446000e+00
  -4.4565000e+01   3.9446000e+00
  -6.8565000e+01   4.2446000e+00
  -5.6565000e+01   2.9446000e+00
  -7.4565000e+01   5.1446000e+00
  -6.4565000e+01   3.5446000e+00
  -5.2565000e+01   4.5446000e+00
  -4.0565000e+01   4.4446000e+00
  -4.2565000e+01   2.9446000e+00
  -5.4565000e+01   3.3446000e+00
  -2.4565000e+01   4.4643000e-02
  -3.8565000e+01   1.9446000e+00
  -3.2565000e+01   3.3446000e+00
  -4.6565000e+01   3.8446000e+00
  -3.2565000e+01   1.1446000e+00
  -1.4565000e+01   2.6446000e+00
  -2.0565000e+01   3.1446000e+00
  -1.2565000e+01   1.4446000e+00
  -2.2565000e+01   2.2446000e+00
  -5.6500000e-01   1.2446000e+00
  -2.0565000e+01   6.4464000e-01
  -6.5650000e+00   1.5446000e+00
  -1.4565000e+01   2.3446000e+00
  -2.2565000e+01   1.4446000e+00
  -1.2565000e+01   4.4464000e-01
  -1.6565000e+01   1.1446000e+00
  -8.5650000e+00   4.4464000e-01
   1.4350000e+00   2.4464000e-01
  -8.5650000e+00  -1.4554000e+00
  -2.5650000e+00  -2.5554000e+00
  -1.2565000e+01  -1.3554000e+00
  -4.5650000e+00  -2.0554000e+00
  -4.5650000e+00  -5.5536000e-01
   9.4350000e+00  -9.5536000e-01
  -1.2565000e+01  -5.5536000e-01
  -1.0565000e+01  -1.2554000e+00
  -1.2565000e+01  -1.1554000e+00
  -1.6565000e+01   6.4464000e-01
   3.4350000e+00   2.4464000e-01
  -2.5650000e+00  -1.4554000e+00
  -4.5650000e+00  -1.2554000e+00
  -2.4565000e+01  -1.5554000e+00
   1.4350000e+00  -7.5536000e-01
  -1.4565000e+01   1.4464000e-01
  -4.5650000e+00  -1.7554000e+00
  -1.8565000e+01  -6.5536000e-01
  -1.0565000e+01  -1.5554000e+00
   1.4350000e+00   6.4464000e-01
  -6.5650000e+00   3.0446000e+00
  -1.8565000e+01   1.2145000e+01
  -2.4565000e+01   1.6845000e+01
  -5.6500000e-01   1.3345000e+01
   1.4350000e+00   1.5446000e+00
  -1.2565000e+01  -1.3855000e+01
   1.1435000e+01  -1.6655000e+01
  -4.5650000e+00  -7.2554000e+00
   5.4350000e+00  -2.1554000e+00
   3.4350000e+00  -2.7554000e+00
   2.5435000e+01  -2.6554000e+00
   2.3435000e+01  -3.7554000e+00
   2.9435000e+01  -4.8554000e+00
   5.9435000e+01  -7.1554000e+00
   6.3435000e+01  -7.9554000e+00
   6.5435000e+01  -8.0554000e+00
   5.1435000e+01  -6.2554000e+00
   6.5435000e+01  -4.4554000e+00
   1.9435000e+01  -3.2554000e+00
  -5.6500000e-01  -1.6554000e+00
  -1.0565000e+01  -2.3554000e+00
   1.4350000e+00  -9.5536000e-01
   1.5435000e+01  -2.5536000e-01
  -2.0565000e+01   1.6446000e+00
  -1.0565000e+01   2.5446000e+00
  -1.4565000e+01   3.5446000e+00
  -1.0565000e+01   2.6446000e+00
  -3.0565000e+01   3.7446000e+00
  -2.6565000e+01   1.9446000e+00
  -4.0565000e+01   8.4464000e-01
  -2.8565000e+01   2.3446000e+00
  -2.4565000e+01   3.8446000e+00
  -1.6565000e+01   3.6446000e+00
  -4.2565000e+01   3.7446000e+00
  -8.5650000e+00   2.8446000e+00
  -1.4565000e+01   2.9446000e+00
  -1.6565000e+01   4.3446000e+00
  -1.8565000e+01   1.4446000e+00
  -2.8565000e+01   2.8446000e+00
  -1.0565000e+01   1.9446000e+00
   1.4350000e+00   3.2446000e+00
  -1.4565000e+01   4.1446000e+00
  -8.5650000e+00   4.6446000e+00
  -2.4565000e+01   5.7446000e+00
   7.4350000e+00   4.5446000e+00
  -2.5650000e+00   4.2446000e+00
  -6.5650000e+00   8.4464000e-01
  -3.6565000e+01   9.4464000e-01
  -4.4565000e+01   1.1446000e+00
  -2.0565000e+01  -1.7554000e+00
   5.4350000e+00  -3.2554000e+00
   1.1343000e+02  -6.8554000e+00
   2.4744000e+02  -1.2555000e+01
   4.8143000e+02  -2.1255000e+01
   6.1343000e+02  -2.9855000e+01
   7.2143000e+02  -3.5555000e+01
   8.0543000e+02  -4.2355000e+01
   7.8743000e+02  -4.3255000e+01
   5.4343000e+02  -2.2055000e+01
   2.3544000e+02   7.4446000e+00
  -3.4565000e+01   2.5945000e+01
  -2.4856000e+02   3.7145000e+01
  -2.7456000e+02   3.7445000e+01
  -2.3656000e+02   2.7445000e+01
  -2.3456000e+02   1.8945000e+01
  -2.2056000e+02   1.1745000e+01
  -2.2056000e+02   7.6446000e+00
  -2.0456000e+02   6.6446000e+00
  -1.8256000e+02   5.1446000e+00
  -1.8856000e+02   5.8446000e+00
  -1.8256000e+02   4.6446000e+00
  -1.7056000e+02   4.9446000e+00
  -1.4056000e+02   3.6446000e+00
  -1.4856000e+02   6.1446000e+00
  -1.4056000e+02   3.2446000e+00
  -1.1656000e+02   1.6446000e+00
  -1.0856000e+02   5.0446000e+00
  -1.0256000e+02   4.4446000e+00
  -9.4565000e+01   5.6446000e+00
  -1.0656000e+02   3.8446000e+00
  -7.4565000e+01   3.0446000e+00
  -5.6565000e+01   4.9446000e+00
  -5.6565000e+01   5.9446000e+00
  -4.6565000e+01   5.4446000e+00
  -5.0565000e+01   4.7446000e+00
  -3.2565000e+01   2.4446000e+00
  -5.4565000e+01   1.8446000e+00
  -2.4565000e+01   1.0446000e+00
  -4.4565000e+01   1.2446000e+00
  -2.6565000e+01   3.0446000e+00
  -2.5650000e+00   1.7446000e+00
  -2.6565000e+01   9.4464000e-01
  -2.0565000e+01   6.4464000e-01
  -1.2565000e+01   4.4643000e-02
  -4.5650000e+00   1.4446000e+00
   1.1435000e+01   3.2446000e+00
  -6.5650000e+00   2.3446000e+00
  -1.2565000e+01   2.6446000e+00
  -5.6500000e-01   6.4464000e-01
  -4.5650000e+00   1.1446000e+00
   1.5435000e+01  -1.4554000e+00
   1.4350000e+00   1.1446000e+00
   1.7435000e+01   2.4464000e-01
   3.3435000e+01  -7.5536000e-01
   2.9435000e+01   1.3446000e+00
   1.3435000e+01  -1.6554000e+00
   3.1435000e+01  -7.5536000e-01
   2.1435000e+01  -3.5536000e-01
   5.3435000e+01   1.4464000e-01
   2.7435000e+01   3.4464000e-01
   5.5435000e+01  -1.5536000e-01
   2.9435000e+01   1.5446000e+00
   4.3435000e+01   7.7446000e+00
   5.1435000e+01   1.4945000e+01
   4.7435000e+01   1.4645000e+01
   7.3435000e+01   3.8446000e+00
   2.9435000e+01  -1.2155000e+01
   6.3435000e+01  -1.7755000e+01
   3.3435000e+01  -9.5554000e+00
   5.7435000e+01  -3.5554000e+00
   4.5435000e+01  -1.7554000e+00
   4.9435000e+01  -3.0554000e+00
   3.7435000e+01  -3.3554000e+00
   3.7435000e+01  -4.1554000e+00
   2.3435000e+01  -2.3554000e+00
   3.9435000e+01  -1.6554000e+00
   1.4350000e+00   6.4464000e-01
   2.3435000e+01  -1.0554000e+00
   3.4350000e+00   1.6446000e+00
   1.4350000e+00   9.4464000e-01
  -4.5650000e+00  -8.5536000e-01
  -1.0565000e+01  -4.5536000e-01
  -2.8565000e+01   1.7446000e+00
  -4.6565000e+01   3.3446000e+00
  -4.6565000e+01   2.0446000e+00
  -6.8565000e+01   3.8446000e+00
  -6.0565000e+01   5.9446000e+00
  -5.2565000e+01   5.9446000e+00
  -6.8565000e+01   6.2446000e+00
  -4.0565000e+01   6.6446000e+00
  -6.2565000e+01   8.3446000e+00
  -4.4565000e+01   8.2446000e+00
  -6.2565000e+01   4.9446000e+00
  -6.4565000e+01   5.0446000e+00
  -4.4565000e+01   5.8446000e+00
  -5.8565000e+01   6.3446000e+00
  -3.6565000e+01   3.4446000e+00
  -3.8565000e+01   2.2446000e+00
  -5.0565000e+01   2.3446000e+00
  -3.2565000e+01   1.9446000e+00
  -4.5650000e+00   2.3446000e+00
  -1.4565000e+01   2.6446000e+00
  -1.0565000e+01   2.1446000e+00
  -1.0565000e+01   2.7446000e+00
  -3.0565000e+01   3.7446000e+00
  -1.2565000e+01   1.6446000e+00
  -4.2565000e+01   1.5446000e+00
  -6.5650000e+00  -1.3554000e+00
   7.4350000e+00  -3.5536000e-01
  -8.5650000e+00   1.1446000e+00
  -4.5650000e+00   6.4464000e-01
  -2.2565000e+01  -2.5536000e-01
  -4.5650000e+00   3.4464000e-01
  -1.0565000e+01  -8.5536000e-01
   9.4350000e+00  -2.2554000e+00
  -6.5650000e+00  -1.5554000e+00
  -4.5650000e+00  -7.5536000e-01
  -8.5650000e+00   7.4464000e-01
  -6.5650000e+00   1.1446000e+00
  -4.5650000e+00   8.4464000e-01
  -1.4565000e+01  -5.5357000e-02
  -4.5650000e+00  -5.5357000e-02
  -1.6565000e+01   1.9446000e+00
  -1.4565000e+01   5.4464000e-01
   1.4350000e+00   2.8446000e+00
  -1.4565000e+01   1.0446000e+00
  -5.6500000e-01   1.7446000e+00
   1.9435000e+01   4.4643000e-02
  -4.5650000e+00   1.2446000e+00
   3.4350000e+00   4.4464000e-01
   3.4350000e+00   9.4464000e-01
   9.4350000e+00   1.8446000e+00
  -4.5650000e+00   1.9446000e+00
  -4.5650000e+00   1.7446000e+00
  -1.8565000e+01   2.3446000e+00
   3.4350000e+00   6.4464000e-01
  -1.4565000e+01   3.4464000e-01
   3.4350000e+00  -1.0554000e+00
   1.4350000e+00  -1.5536000e-01
   3.4350000e+00  -1.5536000e-01
   7.4350000e+00   3.6446000e+00
  -6.5650000e+00   3.2446000e+00
  -5.6500000e-01   4.4464000e-01
  -6.5650000e+00  -2.5536000e-01
  -5.6500000e-01   4.4464000e-01
  -2.5650000e+00   6.4464000e-01
   2.1435000e+01  -4.5536000e-01
   1.5435000e+01  -1.5536000e-01
   2.1435000e+01  -1.1554000e+00
   1.9435000e+01  -2.1554000e+00
   4.7435000e+01  -1.8554000e+00
   5.1435000e+01  -1.3554000e+00
   6.7435000e+01  -3.2554000e+00
   3.7435000e+01  -5.0554000e+00
   3.3435000e+01  -5.8554000e+00
   3.7435000e+01  -3.6554000e+00
   2.1435000e+01  -1.7554000e+00
   1.9435000e+01   2.4464000e-01
   7.4350000e+00   3.2446000e+00
   1.4350000e+00   5.1446000e+00
  -1.4565000e+01   5.2446000e+00
  -1.0565000e+01   3.6446000e+00
  -2.5650000e+00   4.5446000e+00
   1.4350000e+00   6.6446000e+00
  -2.0565000e+01   6.5446000e+00
  -3.0565000e+01   6.4446000e+00
  -3.2565000e+01   6.7446000e+00
  -2.8565000e+01   4.9446000e+00
  -3.8565000e+01   5.9446000e+00
  -1.0565000e+01   4.6446000e+00
  -2.4565000e+01   5.6446000e+00
  -4.4565000e+01   5.5446000e+00
  -1.8565000e+01   4.4446000e+00
  -3.2565000e+01   5.8446000e+00
  -3.4565000e+01   1.2045000e+01
  -5.6500000e-01   1.9845000e+01
  -6.5650000e+00   2.2345000e+01
  -4.5650000e+00   1.4845000e+01
  -3.2565000e+01  -4.4554000e+00
  -3.8565000e+01  -1.3355000e+01
  -1.4565000e+01  -9.5554000e+00
  -2.5650000e+00  -1.5554000e+00
   5.4350000e+00   1.7446000e+00
  -8.5650000e+00   6.4464000e-01
  -3.2565000e+01   1.4464000e-01
  -4.6565000e+01   7.4464000e-01
  -3.2565000e+01  -7.5536000e-01
  -1.0565000e+01  -1.7554000e+00
   4.9435000e+01  -1.9554000e+00
   1.5544000e+02  -6.4554000e+00
   3.2344000e+02  -1.6855000e+01
   4.8743000e+02  -2.6755000e+01
   6.4143000e+02  -3.3055000e+01
   7.5143000e+02  -3.7755000e+01
   7.9143000e+02  -4.1955000e+01
   6.5543000e+02  -3.4255000e+01
   3.6144000e+02  -9.3554000e+00
   9.1435000e+01   1.6345000e+01
  -1.4856000e+02   3.1545000e+01
  -2.4656000e+02   3.5545000e+01
  -2.5456000e+02   3.1345000e+01
  -2.4056000e+02   2.2545000e+01
  -2.0656000e+02   1.5345000e+01
  -2.1056000e+02   1.1345000e+01
  -1.9456000e+02   7.8446000e+00
  -1.7056000e+02   6.2446000e+00
  -1.9456000e+02   8.4446000e+00
  -1.6256000e+02   5.3446000e+00
  -1.6256000e+02   5.1446000e+00
  -1.6056000e+02   5.5446000e+00
  -1.6856000e+02   4.1446000e+00
  -1.3856000e+02   2.3446000e+00
  -1.2456000e+02   4.5446000e+00
  -1.0056000e+02   6.4446000e+00
  -9.4565000e+01   5.2446000e+00
  -1.1456000e+02   4.2446000e+00
  -8.6565000e+01   1.7446000e+00
  -8.0565000e+01   2.9446000e+00
  -6.8565000e+01   3.1446000e+00
  -5.2565000e+01   3.7446000e+00
  -5.2565000e+01   3.5446000e+00
  -7.2565000e+01   3.9446000e+00
  -4.8565000e+01   2.9446000e+00
  -2.6565000e+01   3.1446000e+00
  -3.8565000e+01   2.8446000e+00
  -2.8565000e+01   1.8446000e+00
  -5.2565000e+01   2.2446000e+00
  -3.2565000e+01   6.4464000e-01
   3.4350000e+00   7.4464000e-01
  -1.8565000e+01   4.4446000e+00
  -2.8565000e+01   2.7446000e+00
  -6.5650000e+00   1.8446000e+00
  -1.2565000e+01   3.4446000e+00
   1.4350000e+00   1.9446000e+00
  -2.6565000e+01   2.7446000e+00
   3.4350000e+00  -5.5357000e-02
   1.4350000e+00   5.4464000e-01
   9.4350000e+00   7.4464000e-01
  -1.4565000e+01   6.4464000e-01
   1.4350000e+00  -3.5536000e-01
   2.1435000e+01  -2.5536000e-01
   9.4350000e+00  -7.5536000e-01
   5.4350000e+00  -3.2554000e+00
   1.7435000e+01  -3.6554000e+00
   2.1435000e+01  -2.6554000e+00
   1.7435000e+01  -3.5536000e-01
   1.7435000e+01  -1.5554000e+00
   3.3435000e+01   3.4464000e-01
   3.7435000e+01  -1.5536000e-01
   3.1435000e+01  -6.5536000e-01
   3.7435000e+01  -2.2554000e+00
   4.9435000e+01  -2.1554000e+00
   4.9435000e+01  -4.2554000e+00
   3.3435000e+01  -2.6554000e+00
   5.1435000e+01  -3.1554000e+00
   5.5435000e+01  -2.9554000e+00
   3.7435000e+01  -2.5536000e-01
   5.5435000e+01  -1.8554000e+00
   1.9435000e+01  -1.0554000e+00
   4.9435000e+01  -2.1554000e+00
   4.9435000e+01  -2.6554000e+00
   4.1435000e+01  -1.7554000e+00
   7.4350000e+00  -4.5536000e-01
   4.3435000e+01  -2.6554000e+00
   1.7435000e+01  -5.5536000e-01
  -5.6500000e-01  -1.1554000e+00
   1.4350000e+00  -9.5536000e-01
  -6.5650000e+00  -1.3554000e+00
  -1.6565000e+01  -1.5554000e+00
  -2.0565000e+01   2.4464000e-01
  -3.2565000e+01   2.2446000e+00
  -4.4565000e+01   3.7446000e+00
  -4.6565000e+01   3.4446000e+00
  -5.2565000e+01   3.9446000e+00
  -4.4565000e+01   3.9446000e+00
  -6.2565000e+01   5.3446000e+00
  -6.6565000e+01   5.9446000e+00
  -8.2565000e+01   7.3446000e+00
  -6.0565000e+01   7.7446000e+00
  -6.2565000e+01   7.2446000e+00
  -5.6565000e+01   6.2446000e+00
  -4.8565000e+01   5.4446000e+00
  -3.6565000e+01   6.8446000e+00
  -3.2565000e+01   6.7446000e+00
  -5.4565000e+01   5.5446000e+00
  -2.8565000e+01   8.0446000e+00
  -2.8565000e+01   1.4445000e+01
  -2.6565000e+01   2.0945000e+01
  -2.6565000e+01   1.8745000e+01
  -4.8565000e+01   8.0446000e+00
  -2.4565000e+01  -9.2554000e+00
  -2.8565000e+01  -1.1355000e+01
  -3.8565000e+01  -5.5554000e+00
  -2.4565000e+01  -2.4554000e+00
  -1.6565000e+01  -7.5536000e-01
  -1.8565000e+01   1.0446000e+00
  -6.5650000e+00  -7.5536000e-01
  -2.2565000e+01   3.4464000e-01
  -4.5650000e+00  -1.1554000e+00
  -2.5650000e+00  -6.5536000e-01
  -1.0565000e+01   3.4464000e-01
  -2.0565000e+01   1.4464000e-01
  -1.8565000e+01  -8.5536000e-01
  -1.6565000e+01  -1.1554000e+00
  -1.0565000e+01  -9.5536000e-01
  -6.5650000e+00   4.4643000e-02
  -1.4565000e+01   1.1446000e+00
  -2.0565000e+01   1.4464000e-01
  -2.0565000e+01  -2.1554000e+00
  -8.5650000e+00  -6.5536000e-01
  -5.6500000e-01  -1.6554000e+00
  -1.0565000e+01  -5.5536000e-01
  -1.2565000e+01  -6.5536000e-01
   7.4350000e+00  -2.5536000e-01
  -1.8565000e+01   3.4464000e-01
  -2.0565000e+01  -1.2554000e+00
  -1.0565000e+01  -1.0554000e+00
  -6.5650000e+00   9.4464000e-01
   3.4350000e+00   2.4446000e+00
  -1.4565000e+01   8.4464000e-01
  -1.4565000e+01  -4.5536000e-01
  -2.0565000e+01   2.7446000e+00
   1.4350000e+00   7.4464000e-01
   7.4350000e+00   2.3446000e+00
  -1.4565000e+01   1.8446000e+00
  -8.5650000e+00   9.4464000e-01
  -2.6565000e+01   1.6446000e+00
  -6.5650000e+00   2.2446000e+00
   7.4350000e+00   2.4446000e+00
  -1.4565000e+01  -4.5536000e-01
  -4.5650000e+00  -1.0554000e+00
   9.4350000e+00   4.4643000e-02
   3.4350000e+00   4.4643000e-02
   3.4350000e+00  -2.8554000e+00
   9.4350000e+00  -2.3554000e+00
   1.5435000e+01  -2.7554000e+00
   3.7435000e+01  -2.6554000e+00
   4.3435000e+01  -1.9554000e+00
   1.9435000e+01  -2.8554000e+00
   5.1435000e+01  -4.3554000e+00
   4.5435000e+01  -2.9554000e+00
   6.1435000e+01  -2.5554000e+00
   1.9435000e+01  -1.5536000e-01
   2.7435000e+01   1.0446000e+00
   2.3435000e+01   1.4464000e-01
   1.9435000e+01  -1.5536000e-01
   1.4350000e+00   1.2446000e+00
  -2.5650000e+00   2.2446000e+00
   1.4350000e+00   4.7446000e+00
  -1.2565000e+01   5.5446000e+00
  -2.0565000e+01   5.6446000e+00
  -3.6565000e+01   5.2446000e+00
  -1.8565000e+01   5.2446000e+00
  -4.0565000e+01   5.4446000e+00
  -3.0565000e+01   4.9446000e+00
  -2.0565000e+01   3.2446000e+00
  -3.6565000e+01   3.3446000e+00
  -3.2565000e+01   4.4446000e+00
  -2.0565000e+01   4.1446000e+00
  -1.0565000e+01   5.4446000e+00
  -4.5650000e+00   6.4446000e+00
  -2.8565000e+01   5.6446000e+00
  -2.4565000e+01   5.7446000e+00
  -2.4565000e+01   5.9446000e+00
  -1.6565000e+01   6.0446000e+00
  -2.2565000e+01   5.2446000e+00
  -2.0565000e+01   4.5446000e+00
  -1.4565000e+01   7.5446000e+00
   5.4350000e+00   6.4446000e+00
  -1.0565000e+01   6.9446000e+00
  -5.6500000e-01   5.4446000e+00
  -1.2565000e+01   3.0446000e+00
  -3.8565000e+01   2.3446000e+00
  -4.0565000e+01   1.8446000e+00
  -1.2565000e+01  -5.5536000e-01
   1.7435000e+01  -2.3554000e+00
   1.0743000e+02  -6.4554000e+00
   2.7744000e+02  -1.3155000e+01
   4.5143000e+02  -2.0355000e+01
   5.9143000e+02  -2.6555000e+01
   6.9343000e+02  -3.4555000e+01
   7.5743000e+02  -4.1155000e+01
   6.4943000e+02  -3.3655000e+01
   4.0944000e+02  -1.1555000e+01
   1.1943000e+02   1.3945000e+01
  -1.2256000e+02   3.0245000e+01
  -2.3056000e+02   3.4945000e+01
  -2.4256000e+02   3.1545000e+01
  -2.2456000e+02   2.3745000e+01
  -2.1656000e+02   1.5545000e+01
  -1.9256000e+02   1.0145000e+01
  -1.8056000e+02   7.1446000e+00
  -1.7656000e+02   4.8446000e+00
  -1.9056000e+02   7.6446000e+00
  -1.6056000e+02   6.6446000e+00
  -1.7456000e+02   4.6446000e+00
  -1.3656000e+02   3.0446000e+00
  -1.2856000e+02   7.4446000e+00
  -1.1256000e+02   1.5145000e+01
  -1.1256000e+02   2.1145000e+01
  -1.1056000e+02   1.5645000e+01
  -9.6565000e+01   1.6446000e+00
  -9.4565000e+01  -1.1155000e+01
  -7.4565000e+01  -9.9554000e+00
  -6.0565000e+01  -3.6554000e+00
  -7.2565000e+01   5.4464000e-01
  -5.0565000e+01   9.4464000e-01
  -3.0565000e+01   1.9446000e+00
  -4.4565000e+01   2.5446000e+00
  -4.2565000e+01   1.0446000e+00
  -2.2565000e+01   5.4464000e-01
  -3.6565000e+01   1.5446000e+00
  -3.0565000e+01   4.4464000e-01
  -6.5650000e+00  -7.5536000e-01
  -3.2565000e+01   1.4446000e+00
  -2.6565000e+01  -1.5536000e-01
  -1.2565000e+01   3.4464000e-01
  -2.8565000e+01   1.9446000e+00
   3.4350000e+00   1.0446000e+00
  -6.5650000e+00   8.4464000e-01
  -5.6500000e-01   5.4464000e-01
   9.4350000e+00   1.8446000e+00
   9.4350000e+00   2.9446000e+00
  -5.6500000e-01   2.7446000e+00
   1.3435000e+01   1.4446000e+00
   1.7435000e+01  -6.5536000e-01
   1.3435000e+01  -8.5536000e-01
   1.3435000e+01  -1.7554000e+00
   2.1435000e+01  -1.2554000e+00
   1.3435000e+01  -2.0554000e+00
   2.7435000e+01  -3.4554000e+00
   2.1435000e+01  -3.2554000e+00
   3.3435000e+01  -3.4554000e+00
   2.3435000e+01  -4.2554000e+00
   3.7435000e+01  -2.5554000e+00
   3.3435000e+01  -3.9554000e+00
   3.9435000e+01  -3.7554000e+00
   3.9435000e+01  -3.8554000e+00
   3.1435000e+01  -4.1554000e+00
   5.1435000e+01  -4.1554000e+00
   3.3435000e+01  -2.3554000e+00
   5.3435000e+01  -1.8554000e+00
   4.9435000e+01  -2.5554000e+00
   4.9435000e+01  -3.1554000e+00
   1.3435000e+01  -4.8554000e+00
   5.9435000e+01  -4.1554000e+00
   4.7435000e+01  -3.5536000e-01
   4.3435000e+01  -3.7554000e+00
   3.5435000e+01  -3.0554000e+00
   5.4350000e+00  -3.8554000e+00
   2.7435000e+01  -2.3554000e+00
   2.1435000e+01  -2.5554000e+00
   3.3435000e+01  -8.5536000e-01
   1.3435000e+01  -6.5536000e-01
  -5.6500000e-01  -4.5536000e-01
  -4.5650000e+00   8.4464000e-01
  -1.2565000e+01   2.0446000e+00
