1996.1
1999
2012
2005.7
1987.8
1971.9
1969
1989.2
1999.9
1991.6
1994.5
2002
2001
2007.7
2021.9
2027.6
2022
2006.8
1991.9
1996.8
2022.8
2046
2047.2
2044.1
2058.4
2060.1
2048
2054.2
2056.6
2054
2062.9
2068
2064.1
2058.7
2068
2082.8
2081
2072.8
2069.2
2067.8
2056.8
2050
2053.9
2040.2
2036.3
2060
2079
2079.2
2056.4
2036.5
2032.9
2032
2040.8
2052.6
2052.2
2042.3
2029
2022.3
2033.7
2053.3
2060.4
2054
2047.3
2043
2034.3
2030.3
2032
2032.9
2041.9
2046.2
2040.2
2046
2056.1
2050.5
2038.8
2036.9
2041
2035.5
2026.2
2035.4
2036.2
2028
2033.7
2025.1
2026.6
2040.3
2040
2045.6
2043.6
2046.8
2048.1
2029
2026.7
2031.4
2036.5
2043.4
2046
2045.8
2035
2046.3
2053.3
2032
2032.8
2038.1
2041.4
2053.5
2047
2034.4
2035.4
2042.3
2044.4
2046
2050.5
2044
2032.4
2038
2040
2029.9
2039.9
2047.5
2048.4
2051
2036.9
2036.5
2044.8
2044.8
2054
2051.4
2035.8
2037.2
2046.4
2057
2065.9
2051.9
2047.7
2062.9
2073
2083.2
2082.5
2082
2082.3
2076
2080.4
2078.3
2076.9
2099
2116
2115.8
2114.1
2109.9
2116.5
2124
2103.7
2085.6
2080.5
2070.7
2065
2068.8
2070
2048.8
2028.8
2035
2043
2041.2
2032.4
2022.6
2027
2031.6
2017.1
2004.6
2012.9
2011
2007.2
2050.1
2118.6
2235.6
2428
2649.1
2875.8
3076.7
3275.8
3355
3110.7
2674.8
2247.9
1936.9
1773
1702.3
1728.3
1774
1791.1
1834
1886.8
1933.7
1961
1962.3
1965
1972.1
1974.4
1974.8
1981.8
1987
1984.6
1986
1983.2
1971.7
1969
1974.9
1980.4
1985.8
1988.4
1984
1980.9
1983.8
1983.2
1984.4
1989
1989.8
1994.3
1994.9
1987.9
1989
1996
1998.8
1997.3
2000.8
2002
1991.5
1989.4
1999.4
2005.1
2006
2008.2
2013.1
2015.7
2015.6
2022
2031.4
2031.2
2031.3
2043
2057
2066.4
2074.8
2085.1
2091.4
2097
2108.6
2116.1
2121.3
2133.8
2142
2139.3
2137.3
2139.4
2143.2
2142
2133.8
2130.5
2128.9
2127
2123
2115
2114.8
2107.5
2096.7
2095
2084
2072.8
2069.4
2062.3
2057
2050.3
2039.4
2042.8
2046.3
2031
2020.6
2020.9
2018
2013.1
2009
2008.8
2010.5
2005.4
1998.3
2001
2005
1997.7
1985
1980.1
1982
1983.9
1984.3
1978.8
1976.6
1976
1970.5
1973.1
1972.7
1974.1
1985
1980.8
1976.9
1988.2
1990.9
1994
2008.3
2009.3
2008.5
2022.2
2032
2033.4
2033.9
2039.4
2043.9
2045
2049.4
2052.3
2056.5
2059.8
2064
2073.4
2071
2065.9
2072.2
2073
2067.9
2067.6
2068.3
2069.7
2067
2061.1
2064.3
2060.5
2056.4
2057
2049.6
2054.4
2051.8
2039.6
2043
2039.5
2034.6
2040.4
2042
2038
2033.9
2033.6
2036.1
2032.8
2026
2022.8
2022.9
2030.4
2030.6
2019
2021.6
2030
2025.5
2019.4
2018
2020
2025.4
2024.5
2022.6
2026
2027
2028.3
2024.1
2021.8
2025
2019.7
2018
2019
2019.1
2027
2024.6
2012.5
2016
2021.3
2015
2016.6
2020.5
2014.6
2014.2
2018
2016.6
2016.9
2015.9
2013.1
2016
2017.7
2016.3
2019.4
2027.3
2030
2024
2018.3
2015
2020.5
2023
2012.7
2013.8
2018.3
2018.8
2021
2018.2
2022.2
2022.1
2015.6
2022
2028.9
2028.7
2024.2
2018.4
2023
2037.7
2050.2
2059.7
2068.3
2075
2077.5
2077.3
2084.8
2088.8
2080
2076
2078.5
2084.3
2088.9
2089
2090.2
2089.3
2086.4
2078.8
2071
2078.5
2082.6
2063.9
2049.2
2040
2019.6
2009.4
2004.6
1995.9
2002
2009.2
2006.1
2006.9
2011.9
2011
2005.5
1993.1
1970.3
1982.9
2039
2126.3
2286.2
2503.6
2762.1
3039
3273
3427.6
3351.5
2961.3
2441
2023.5
1791.6
1687.2
1702.4
1783
1809.9
1827
1873
1916.8
1945
1943.5
1944.5
1956.6
1963.8
1966
1963.8
1970.7
1976.8
1973.4
1972
1976.2
1986
1989.2
1985.7
1986
1985.6
1985.5
1986.5
1986
1981
1974.4
1979.2
1987.5
1988
1986
1986.6
1988.6
1984.5
1985.8
1990
1986.9
1992.3
1992.6
1992.8
2000
1996.5
2001.4
2005.4
2007.1
2019
2019.2
2019.1
2024.8
2031.6
2042
2046.4
2052.6
2063.7
2077
2091
2099.3
2109.1
2119.4
2122.9
2130
2144.1
2153.5
2158.7
2166
2167
2162.5
2163.9
2165.4
2168.6
2170
2157
2146.6
2146.6
2147.1
2141
2124.6
2110.6
2104.5
2100.2
2096
2090.2
2081.9
2074.6
2068.9
2063
2054.7
2047.6
2049.5
2043.2
2031
2030.1
2022
2016.6
2025.7
2027
2021.5
2017.1
2013.2
2011.1
2013
2017.7
2016.7
2009.6
2010.4
2012
2006.9
2005.1
1995.1
1995.9
2005
1993.3
1994.5
1996.9
1990.9
1996
1993.9
1996.3
1998.7
1995.3
2003
2008.2
2008.1
2008.2
2013.6
2025
2028.8
2026.8
2028.5
2033.9
2040
2042.5
2040
2037.8
2046.3
2054
2050.7
2053.6
2059.4
2062
2062
2057.6
2058.1
2054.4
2057.9
2067
2058.2
2057.5
2058.9
2050.9
2054
2058.9
2059.7
2056.9
2051.2
2050
2046.9
2042
2045.8
2044.4
2030
2020.8
2023.3
2036.5
2044.8
2040
2037.6
2034.4
2028
2026.9
2036
2044.9
2036
2027.9
2032.8
2034
2036.3
2045
2046
2039.6
2032
2025.7
2027.1
2031.5
2040.9
2040
2025.1
2031.4
2034.3
2025.8
2040
2047.6
2036.9
2035.2
2028.6
2026
2043.2
2037.1
2012.6
2006.8
2016
2029.2
2033
2035.6
2045.1
2039
2025.9
2029.5
2032.1
2037.4
2056
2057.7
2040.6
2022.5
2011.6
2011
2023
2042.2
2031.2
1999.7
1995
2011.7
2029.6
2046.6
2062.8
2064
2045.7
2034.4
2035.3
2043.5
2064
2084.5
2087.1
2070.8
2062.1
2068
2073.1
2086.2
2098.1
2092.9
2085
2086.7
2094.3
2101.1
2108.8
2122
2120.6
2093.7
2076.3
2074
2077
2089.9
2083.1
2053.9
2033.6
2024
2029.4
2051.1
2053.7
2029
2006
2000.1
2009.5
2016.9
2032.4
2023
1981.6
2004.1
2069.1
2169
2332
2535.2
2786.7
3001.8
3208.7
3372
3257.3
2896.2
2429.2
2009
1782
1691.3
1683.8
1741.8
1790.6
1813
1852.2
1908.3
1945.2
1956.9
1955
1958.1
1971.5
1973
1974.1
1983
1985.2
1992.5
1991.5
1986.3
1988
1978.5
1976.6
1983.3
1990.9
1998
1982.6
1972.6
1994.4
2009.6
2004
1999.5
1990.9
1980.1
1987.5
1993
1988.7
1992.8
1982.6
1978.3
1995
2002.2
2013.2
2007
1995.5
2016
2028.4
2026
2021.9
2024.1
2031
2027.2
2037
2059.2
2064.1
2066
2068.5
2066.8
2091.3
2106.2
2099
2118.5
2132.3
2139.1
2154.1
2154
2157.4
2159.4
2148.5
2152
2159
2140.7
2121.3
2127.5
2152.9
2162
2141.9
2131
2129.3
2132.5
2123
2087.3
2077.9
2074.5
2060.4
2071
2082
2080.1
2068.9
2053.4
2055
2056
2035
2020.3
2018.7
2013
2019
2037.2
2044.9
2038.6
2019
1994.6
1995.1
2019.9
2023.5
1999
1992.8
2008.5
2004.5
1991.5
1995
1994.8
1993
2008.1
2017.7
2009
2002.1
1997.5
1990
1998.1
2011
2006.8
2007.4
2021.8
2032.4
2039
2039
2033.4
2039.3
2039.8
2033
2041.7
2049.4
2059
2066.6
2061
2063
2066.5
2071
2075.9
2078
2082.3
2071.5
2060.2
2060.8
2064
2072.6
2076.2
2076
2073
2069
2071.4
2067.6
2068.8
2078.7
2066
2045.6
2049.1
2056.8
2060.6
2064
2056.4
2052.1
2049.7
2038.6
2036
2038
2035.2
2041.5
2044.3
2034
2029
2026
2028.7
2035.6
2038
2037.9
2028.5
2026.4
2034.8
2030
2028.9
2037.3
2025.1
2013.7
2019
2017.9
2025.9
2033.9
2026.1
2025
2034.6
2041.4
2031.2
2024.5
2029
2022.5
2018.2
2019.1
2017.4
2024
2026.5
2015.4
2012.8
2018.5
2019
2013.7
2005.7
2012.2
2015
2005
2008.1
2009.4
2012
2022.5
2024
2024.2
2022.2
2016.9
2019.7
2023
2018.8
2013.8
2011.4
2016.2
2020
2012.2
2010.3
2017.8
2020.5
2021
2019.3
2017.3
2024.8
2029.2
2026
2035.1
2051.3
2060.8
2063.1
2058
2054.6
2061.2
2069.2
2067.1
2066
2073.8
2076.6
2075.8
2076.7
2082
2088.2
2078.3
2066.4
2062.5
2060
2057.4
2046.4
2040.6
2034.2
2016
2010
2008.7
1997.8
1990.3
1994
2000.4
1999.1
1995.9
1992
1992
1987.2
1964.8
1979.3
2044.7
2147
2303.2
2500.2
2749.3
2995.5
3208
3371.8
3292.4
2925.3
2452.9
2051
1808.5
1690.6
1675
1726
1762
1787
1837.9
1893.5
1926.4
1935
1934
1941
1942
1943.3
1956
1955.6
1950.2
1959
1967.6
1966
1962.5
1963.8
1965.5
1962.3
1960
1957.9
1952.3
1957.3
1962
1953
1953.6
1965.3
1971.1
1974.1
1973
1970.7
1973.4
1966.2
1966.9
1982
1981.7
1979.1
1978.1
1980.1
1990
1987
1986.5
1997
1994.5
1993
2005.1
2008.6
2009.2
2014.6
2020
2033.1
2041.3
2044.4
2060.5
2079
2085.8
2087.6
2091.6
2103.2
2121
2127.3
2122.2
2125
2132.9
2135
2137.3
2140.3
2138.3
2132.8
2128
2124.4
2119.6
2113.7
2101.6
2089
2086.5
2083.2
2074
2063.8
2056
2051.8
2042.9
2033.1
2034.2
2033
2023.4
2015.6
2003.4
1999.2
2007
2001.2
1994.5
1997.5
1990.4
1981
1982
1980.8
1975.5
1973.1
1975
1976.4
1969.3
1966.3
1972.8
1971
1965.4
1967
1965.8
1966.4
1972
1970.3
1968.8
1972.1
1977.8
1976
1967.7
1977.6
1986.7
1988.1
1991
1994.1
2009.7
2007.1
2001.9
2019
2018.9
2018.7
2025.5
2024.1
2030
2036.8
2037.8
2038.5
2041.9
2054
2060.9
2050.4
2048.7
2055.1
2051
2046.6
2040.5
2041.9
2055.6
2058
2051.3
2049.6
2047.8
2046.4
2047
2044.1
2041.7
2037.3
2032.8
2034
2031.9
2024.7
2018.1
2016.7
2020
2018.6
2014.9
2019.4
2024.8
2019
2013
2016.9
2016.9
2014
2013
2010.9
2014.6
2012
2002.8
2005
2007.9
2005.2
2005.2
2000.6
1997
2001.8
2001.5
2005.2
2010.7
2007
2010.7
2012.4
2003.8
2006.3
2010
2002.3
2004
2007.9
2006.2
2009
2011.7
2014.1
2009.6
2004
2009
2014.3
2018.3
2017.6
2010.7
2009
2009.8
2008.3
2010.5
2009.7
2011
2014.3
2001.7
2001.7
2015.7
2012
2007.9
2010.4
2014.7
2022.4
2032
2043.8
2053
2063.2
2065.8
2065
2077.9
2086.8
2086.2
2079.9
2069
2071.7
2080.4
2076.9
2071.7
2072
2071.1
2066.3
2058
2057.2
2060
2048.3
2036.6
2033.4
2021.5
2010
2007.6
2000.1
1996.1
1993.8
1986
1988.8
1994.5
1993
1990.4
1989
1982.6
1968.6
1978.1
2030.5
2131
2295.6
2520.1
2788.9
3053.2
3277
3404.8
3282.1
2868.5
2345.2
1943
1734.6
1654.8
1687.3
1764.8
1799
1823.6
1858.7
1892.5
1924.7
1939
1938.9
1941
1942.8
1947.2
1953
1953.3
1955.4
1955.8
1958
1966
1959.8
1950.4
1958.9
1962.3
1951
1951.7
1961.6
1963.4
1969.9
1976
1971.7
1974.1
1972.4
1965.9
1974
1979.9
1976.6
1977.2
1981.3
1981
1979.6
1984.6
1988.3
1991.5
1995
1990.5
1990.5
1999.3
1997.6
1992
1996
2000.2
2007.9
2020.3
2032
2047.1
2054.2
2051.7
2056.6
2070
2090.1
2113.1
2119.7
2119.3
2132
2142.5
2145.1
2152.2
2157.7
2151
2138.8
2131.6
2133.7
2148.5
2155
2137.5
2121.6
2114.7
2108.3
2113
2110.7
2082.7
2063.1
2056.6
2053
2063.8
2066.5
2057.7
2051.4
2036
2015.5
2003.7
2005.5
2010.8
2001
1983
1980.3
1987
1985.6
1989
1996.1
1986.1
1975.9
1977.7
1971
1969.9
1985.9
1981.8
1961.2
1959
1962.4
1965.1
1981.8
1993.5
1990
1981.2
1963.2
1954.4
1965.1
1981
1985.5
1966.2
1957.7
1970.8
1979
1993.9
2012
2007.9
1993.6
1994
2006.2
2017.6
2026.1
2032.2
2026
2014
2016.4
2017.7
2023.8
2045
2056.2
2050.2
2028.2
2024
2045
2047.6
2048.6
2056.3
2040.8
2028
2031.1
2024.8
2031.9
2047.7
2045
2040.6
2033.3
2029.3
2028.7
2030
2045.6
2045.4
2029.6
2025.1
2023
2020.7
2027
2035.8
2033.4
2023
2020.4
2024.2
2026.1
2035.6
2042
2022.2
2002.2
2009.5
2023
2031
2042.8
2046.7
2032.3
2017.5
2011
2015.5
2032.7
2038.5
2036.1
2032
2014.8
2009.1
2015.2
2022.8
2035
2045.4
2054.3
2041.2
2024.3
2030
2038.6
2052
2056
2041.6
2035
2038.8
2044.5
2047.3
2052.6
2044
2019.4
2018.1
2024.1
2034.8
2054
2057.5
2062.3
2047.8
2028.4
2037
2040.7
2047.4
2049.4
2038.1
2039
2041.7
2038.4
2030.6
2026.7
2037
2046.3
2051.5
2066.5
2077.6
2078
2080.3
2076.2
2069.8
2074.5
2086
2093.5
2090.1
2094.9
2114.4
2127
2128.1
2121.4
2105.5
2093
2086
2088.5
2103.9
2088.9
2057.7
2056
2058.5
2051.4
2039.9
2034.1
2036
2021.5
2005.3
2013.2
2027.8
2031
2025
2011.8
1993.7
2000.1
2030
2094.2
2224.7
2381.2
2596.9
2842
3042.4
3255.8
3321.3
3109.3
2718
2254.7
1914.8
1745.9
1676.2
1703
1759.8
1784.8
1804.3
1862
1936
1971.1
1972.2
1976.1
1986.6
1989
1976.9
1964.8
1983.3
2005.9
2008
2007.3
1994.1
1985.8
1994.6
1995
1989.5
1985.7
1990.3
2008.1
2019
2021
2026.4
2019.9
2014.9
2021
2011.9
2002.1
2004.3
2016
2025
2021.8
2029.4
2031.5
2022.8
2023
2022.2
2026.4
2031.2
2027.4
2030
2034.6
2042.1
2065.8
2076.6
2080
2102.6
2101.4
2081.9
2087.7
2098
2104.9
2121.2
2131
2133.3
2142
2151
2162.6
2179.6
2190.7
2185
2172.8
2168.3
2158.2
2158.6
2169
2157.1
2150.4
2159.4
2157.8
2151
2143
2132.2
2123.5
2109
2098
2100.6
2092.1
2079
2081.6
2078
2060.4
2048.6
2046.8
2047.4
2046
2041.8
2033.2
2019.1
2017.9
2025
2020.5
2018.8
2014.9
2010.2
2012
2001.8
1992.2
1992.8
1993.3
1992
1988.8
1988.8
1992.2
1998.8
1993
1973.6
1977.1
1995.3
1999.3
2001
2003
2000.3
2006.5
2013.1
2014
2018.8
2018.5
2022.3
2029.4
2032
2042.7
2047.8
2045
2050.2
2055
2057.2
2061.3
2059.1
2059.7
2069
2071.5
2072.4
2074.6
2071.2
2070
2078.5
2085.6
2074.5
2064.2
2064
2058.9
2061.7
2064.9
2054.5
2053
2059.6
2052.4
2041.9
2042.1
2045
2043.6
2037.2
2031.8
2030.5
2037
2042.7
2033.4
2034.1
2041.7
2030
2020.2
2022.8
2021.8
2018.8
2017
2018.7
2025.9
2025
2019.7
2022
2020.6
2017.3
2019.2
2017.3
2013
2012.4
2012.2
2015.3
2020.3
2021
2019.7
2018.8
2022.7
2026.6
2022
2014.1
2008.7
2008.2
2004.6
1996
1995.1
2001.5
2007.6
2006.2
2002
2009.4
2017.2
2010.2
2005.4
2010
2010.2
2005.7
1998.6
2000
2007
2009
2016.1
2014
2009.5
2013
2006.6
2008.3
2015.2
2011.2
2013
2015.5
2008.6
2006.5
2015.4
2033
2053
2061.9
2066.2
2066.9
2067
2069
2059.6
2065.8
2081.2
2070
2057.2
2054.5
2050.5
2056.7
2057
2038
2033.3
2041.9
2039.7
2031
2022.8
2017.9
2010.7
2002.9
2003
2002.6
2001.8
2006.2
1995.8
1987
1990.1
1968.2
1965.5
2011
2098
2244.9
2439.6
2707.7
2979.4
3201
3383.4
3350.4
3021.1
2528.2
2078
1821.8
1702.3
1671.1
1724.1
1775
1799.7
1845
1895.1
1919.9
1933
1940.2
1942.6
1943.7
1951.3
1964
1969.2
1970.5
1970.7
1966.4
1967
1970.8
1966.7
1965.8
1968.9
1969
1971.2
1969.3
1966.6
1972.6
1984
1991.5
1986.8
1981.1
1981.8
1984
1985.6
1983.7
1987.1
1996.2
1994
1985.1
1987.8
1998.4
2003.9
2000
1995.7
2001.1
2005.8
2011.1
2015
2009.7
2013.9
2021.9
2022.8
2033
2044.2
2048.3
2062
2071.1
2075
2091.8
2099.2
2103.3
2113.6
2122
2133.6
2135.3
2138.2
2147.9
2144
2143.8
2154.5
2153.7
2148.7
2147
2141.9
2140.9
2131.1
2116.7
2113
2104.9
2096.6
2091
2083.4
2075
2061.8
2049.5
2041.3
2038.1
2038
2030.4
2018.6
2010.3
2004
2003
2004.3
1996.7
1989.9
1993.9
1998
1995.5
1991.4
1992.2
1996.3
1997
1994.9
1992.2
1988.3
1990.6
1992
1986.1
1984.9
1979.6
1980.1
1987
1979.9
1978.6
1977.3
1978.2
1989
1983.6
1981.5
1988.8
1981.9
1982
1994.7
1995.9
1996.2
1998.1
1996
2001.3
2002.1
2005.8
2020.9
2024
2019.3
2022.9
2028.5
2032.2
2033
2031.8
2035.3
2035.8
2042
2048
2037.2
2037.5
2041.3
2034.8
2033
2030.8
2030.4
2027.7
2023.1
2031
2037.3
2030.1
2026.9
2031.6
2034
2031.3
2021
2013.9
2017.9
2023
2022.4
2017.5
2016.4
2020.3
2022
2018
2011.9
2011.7
2012.1
2012
2014.8
2007.3
1997.9
2009.3
2035
2058
2070.5
2072.5
2076.9
2078
2067.9
2067.7
2073.7
2077.4
2078
2060.5
2039.8
2036.4
2040
2039
2031.8
2023.3
2022.8
2022.6
2016
2007.9
1997.9
1993.8
1987.8
1979
1984
1987.5
1984
1986.9
1984
1978.4
1978.3
1960.1
1965.8
2030
2128.9
2285.3
2502.5
2773.2
3051
3274.4
3427.2
3343.1
2929.3
2395
1979.7
1758.3
1669.2
1681.6
1756
1798.5
1820.9
1864
1905.9
1935
1947.8
1945.6
1949
1956.8
1959
1962.3
1959.8
1959.6
1968.7
1972
1969.1
1967.7
1971.8
1975.8
1973
1973
1978.8
1980.3
1983.6
1984
1979.9
1991.7
1997.3
1993.1
1997
1995.1
1996
2001.5
2005.8
2012
2002.2
1987.2
1996.5
2005.7
2000
2002
2006.8
2014.4
2018.3
2020
2033.1
2036.5
2043.6
2054.6
2051
2056.8
2070.5
2081.1
2090.1
2094
2102.9
2115
2120.8
2136.3
2148
2139.8
2147.3
2159.2
2164.6
2182
2190.5
2178.5
2156.6
2155.8
2162
2145.6
2151.2
2166.4
2147.6
2129
2122.4
2106.1
2092.9
2085.9
2070
2056.7
2053.6
2053.2
2059.4
2063
2047.9
2026.2
2012.9
2013.6
2019
2024.5
2035.9
2029.6
2013.1
2004
1994.4
2004.6
2021.5
2016.6
2006
1997.3
1994.7
2007.2
2012.3
2016
2022.8
1995.6
1975.2
1989.6
1994
1997.2
2008.7
2001.9
1987.6
1982
1982.4
1994.3
2005.9
2012.5
2003
1977.7
1983.6
2000.6
2008.1
2029
2046.4
2047.2
2029.5
2018.1
2030
2040.9
2052.8
2062.5
2061.7
2059
2056.5
2057.7
2060.1
2061.6
2058
2045.1
2040.1
2046.9
2051
2057
2063.6
2058.7
2055
2050.1
2040
2038.4
2036.9
2039.1
2042.5
2043
2045.2
2030.6
2024
2050
2065
2053
2040.2
2027.4
2021.2
2025
2030.5
2041.7
2033.7
2021.1
2022
2017.6
2028
2035
2036.1
2047
2036.2
2022.9
2024.6
2027.2
2033
2030.9
2020.9
2023.2
2032.1
2036
2042.4
2047.7
2044.5
2037.5
2030
2019.1
2014
2034.2
2054.5
2037
2013.7
2026
2049.4
2056.8
2054
2052
2050.6
2034.4
2027.2
2038
2036.6
2033
2024.2
2019.4
2037
2053.1
2055.7
2040.1
2038.7
2044
2028.8
2040.5
2044.5
2022.2
2029
2039.9
2042.1
2050.9
2055.4
2049
2043
2046.1
2048.1
2058.7
2055
2021.6
2019.6
2040
2043.4
2048
2052.4
2050.4
2048.6
2055
2066
2064
2063.1
2085.6
2104.1
2091
2077
2083.9
2090.5
2099.7
2113
2114.7
2112.9
2101
2086.8
2099
2108.1
2089.5
2074.8
2069.9
2064
2067.3
2064.5
2047.2
2044.5
2048
2037.2
2035.8
2045
2049.4
2045
2038.2
2040.2
2022.7
2024.1
2072
2148.7
2296.7
2483.2
2701.1
2931
3132
3335.5
3345.1
3047.3
2610
2183.7
1901.2
1760.4
1719
1763
1800.8
1820.4
1859.5
1906.7
1956
1991.5
1994.6
1990.9
1992.4
1994
2003.3
1999.8
1989.4
1998.3
2014
2016.5
2004.5
1998.3
2011.9
2025
2023.8
2016.1
2001.1
1998.3
2015
2018.4
2010
2008.4
2014
2018
2021.9
2030.9
2021.6
2010.4
2012
2004.1
2001.3
1998.3
1996.8
2013
2022
2024.3
2028.4
2023.7
2024
2035.2
2038.6
2040.2
2056.1
2069
2071.2
2080
2092.6
2096.9
2102
2106.3
2108.8
2128.6
2137.5
2128
2138.2
2150
2153.7
2153.4
2152
2166.5
2174.4
2168.4
2161.2
2151
2146.4
2145.6
2142.4
2142.5
2138
2124.3
2114.5
2100.9
2085.6
2085
2084.3
2075
2071.4
2072.1
2066
2055.8
2045.5
2032
2023.3
2026
2031.6
2031
2022.2
2018.3
2017
2009.2
2010.1
2012.7
2015.3
2012
1995.3
1996.9
2001.7
1999.3
2000
1994.4
1999.6
1999.2
1988.9
1994
1998.4
1997.9
1994.9
1991
1996
2005.1
2013.3
2017.8
2021.4
2025
2026.6
2029.5
2027.1
2029.4
2043
2046.5
2042.6
2048.2
2058.6
2063
2064.9
2072.9
2078.7
2075.1
2075
2078.1
2072.5
2072.8
2078.2
2080
2082.9
2075.9
2068.8
2071
2071
2071.5
2066.5
2053.9
2054
2062
2063.4
2070.6
2080.9
2092.8
2105
2103.7
2099.6
2095
2088.2
2091
2098.1
2099.8
2087.9
2064.6
2054
2058.9
2054.6
2045.2
2046.2
2046
2040.5
2035.9
2027
2020.7
2020
2009.9
1997.8
1996.7
2002.8
2005
1999.8
1996.5
1992
1994.4
1990
1971.2
1982.8
2024.1
2111.1
2248
2434.6
2710.3
2974.4
3194.2
3381
3367.2
3060.6
2547.3
2079.2
1823
1694.3
1660.4
1718.5
1775.3
1801
1842.6
1899.6
1930.3
1937.9
1944
1951.1
1958.8
1959.7
1960.4
1965
1966.8
1968.9
1963.5
1962.8
1970
1967.8
1968.8
1964.2
1960.2
1972
1973.7
1970.2
1973.3
1980.3
1983
1976.2
1977.7
1980.1
1977
1980
1977.2
1973.6
1985.1
1991.2
1986
1989.1
1989.7
1983.4
1990.4
1999
1996.6
1998.3
2001.1
2008.1
2018
2017.1
2023.9
2037.3
2048.2
2058
2062.9
2076.9
2090.1
2096
2107
2120.4
2136.4
2143.9
2143.8
2152
2160.9
2166
2172.3
2177.1
2178
2174.9
2165.9
2155.4
2155
2154
2142.8
2134.3
2122
2111.8
2107
2094.7
2089.3
2081.4
2067.3
2058
2045.1
2037.3
2028.7
2018.9
2020
2018.1
2009.6
2001.5
2002.7
2008
2003.1
1997.9
1993.2
1987.5
1990
1992.3
1986.3
1981.1
1980.5
1981
1979.2
1977.8
1983.1
1980
1969
1974.5
1981.5
1974.8
1971.6
1974
1970.2
1963.9
1964.7
1972.4
1975
1973.4
1979.8
1981.8
1982.5
1991
1994.9
1996.5
1994.9
1998.5
2007
2004
2006.9
2015.5
2014.7
2015
2019.4
2022
2021.4
2020.3
2023
2029.1
2031.5
2028.1
2028.2
2035
2036.6
2030.9
2031.5
2034.8
2035
2033.8
2025.6
2022
2027.4
2022
2015.6
2020.1
2014.8
2012.3
2016
2004.6
2004.5
2013.3
2012
2018
2022.5
2014.8
2010
2015.2
2021
2018.3
2009.3
2006.5
2017.4
2018
2004.7
2007.6
2016.5
2019
2021
2013.6
2009.3
2015.6
2016.7
2011
2005.9
2007
2015.7
2017.6
2014
2017.7
2016.9
2014.7
2016.7
2017
2019.8
2020.4
2020.3
2019.9
2017
2017.1
2018.3
2022.9
2024.6
2014
2007.5
2014.7
2021.8
2023.4
2021
2016.6
2019
2024
2024.3
2026
2025
2016.7
2014.7
2022.2
2023
2020
2022.2
2017.6
2014.9
2021
2021
2019.5
2017.9
2018.2
2024
2021.7
2019.4
2025
2024.3
2022
2024.7
2019.5
2015.3
2021.2
2028
2028.8
2021.1
2019.7
2021.2
2024
2035.7
2037.2
2043.8
2062.8
2074
2077.7
2074.7
2081.6
2092.7
2086
2079.9
2083.7
2088.6
2094.4
2090
2083.1
2092.3
2089.8
2078.9
2080
2070.4
2057.5
2052.9
2045.3
2040
2030.8
2012.5
2009
2014.8
2008
2000.4
2001
2006.8
2011.2
2005
1996.3
1989.3
1977.1
1988.9
2050
2154.2
2318.8
2554.7
2826.8
3085
3311.3
3445.8
3305.5
2852
2320
1940
1750.2
1679
1715.9
1799
1821.1
1834.6
1881.7
1920.8
1945
1952.3
1951.3
1955.8
1961.5
1963
1962.5
1963.3
1967.8
1970.3
1966
1966.8
1972.5
1968.8
1963.2
1974
1982.1
1971.5
1971.5
1975
1971
1978.7
1978.3
1969.3
1968.5
1967
1969.6
1975.6
1975.6
1976.8
1972
1964.1
1977.2
1988.2
1989.3
2000
2004.5
2005.9
2011.4
2007.5
2002
2007.1
2015.4
2022.8
2031.5
2038
2042.1
2048.7
2063.4
2079.3
2079
2069.6
2077
2096.5
2109.4
2132
2161
2161.4
2151.4
2152.9
2151
2150.2
2156.7
2160.7
2150.6
2139
2136.1
2125
2119.7
2126.5
2121
2108.6
2101
2095.3
2095.5
2108
2106.8
2071.7
2046.5
2047.3
2051
2056.6
2054.1
2040.7
2025.6
2014
2014
2019.1
2024.1
2034.9
2032
2013.4
2006.3
2002.7
2018.9
2031
1997.1
1983.2
1988.5
1990.4
2009
2017.3
2015.4
2001.5
1993.7
1999
1994.7
2003.9
2003.3
1995.3
2003
1995
1993
2004.5
2009.5
2017
2015.2
2003.6
2005.3
2021.2
2046
2065.2
2055
2041.5
2046.8
2059
2073
2076.5
2075.6
2082.8
2074
2065.6
2088
2089.1
2071.3
2069
2065.2
2078.5
2088.5
2079.5
2084
2087
2076.6
2065.8
2073.2
2089
2085.9
2077.1
2070.7
2067.6
2075
2073.3
2053
2040.8
2049.3
2055
2050.6
2054.4
2062.1
2061.8
2062
2059
2047.8
2048.1
2051.2
2050
2052.1
2037.7
2026.1
2035.6
2048
2060.3
2063
2056.8
2052.1
2045
2043
2048.7
2047.4
2046.9
2046
2038.3
2045
2051.4
2049.3
2053
2050.4
2050.4
2056.7
2052.1
2044
2046.6
2049.5
2040
2043.7
2040
2018.3
2035.1
2053.6
2060.7
2076
2060.7
2048.3
2045.2
2036.1
2043
2054
2061
2052.1
2040.1
2046
2050.3
2051.3
2054.9
2059.6
2061
2050
2037.8
2038.3
2056.1
2078
2078.2
2057.2
2039.4
2047.7
2065
2064.5
2064.1
2071.4
2070.1
2065
2061.6
2067.9
2097.7
2115.3
2109
2110.6
2100.3
2084.6
2097.3
2109
2105.9
2112.4
2115.2
2106.3
2107
2118
2129.7
2131.9
2131.2
2122
2100
2092.4
2087.8
2086.3
2088
2067.5
2056.7
2056.6
2042.2
2036
2047.4
2057.9
2051.4
2040.7
2028
2007.3
2007.9
2019.9
2026.9
2057
2131
2245.2
2397.5
2623.6
2852
3039.6
3261.9
3353.7
3190.4
2818
2343.5
2015.9
1826.2
1704.3
1714
1764.1
1798.9
1837.5
1884.1
1945
1981.3
1977.4
1975.2
1990.2
2000
2008.1
2012.3
2000.4
2001.1
2012
2003.8
2001.9
2012.5
2020.1
2024
2016.8
2009.5
2010.6
2018.4
2018
2006
2013.1
2024.5
2015
2010
2019.9
2025.1
2023.3
2030
2037
2024.2
2010.9
2022.6
2035.7
2028
2018.1
2018.6
2027.6
2041.5
2045
2040.6
2049.5
2063.2
2070.8
2074
2076.3
2086.1
2087.7
2083.2
2094
2107.3
2113.4
2118.5
2123.9
2135
2146.9
2150.2
2158.3
2167.7
2168
2171.3
2171.4
2165.2
2167.6
2169
2161.7
2158.2
2151
2138.7
2134
2128.7
2118.5
2110.1
2104.2
2104
2102.6
2090.3
2082.8
2081.6
2074
2066.2
2057.2
2048.7
2050.3
2050
2039.7
2034.4
2035.6
2033.4
2030
2027.6
2027.3
2029.2
2031.6
2027
2019
2018.8
2015.9
2016.5
2018
2004.3
1999.7
2003.1
2000.7
1999
1994.1
1994.9
2001.5
2007.4
2003
1993.4
2006.7
2020.1
2015.8
2014
2018.1
2029.1
2037.1
2043.2
2047
2044.2
2054.7
2063.3
2062.6
2069
2074.2
2078.9
2079.5
2080
2081
2074.7
2078.4
2083.4
2083.8
2086
2077.8
2073.3
2082.3
2089.2
2087
2080.4
2078.6
2077.8
2066.9
2057
2056.7
2052.6
2049.4
2051.9
2052
2049.7
2042.4
2038.4
2045.8
2053
2050.3
2042.6
2042.1
2047.4
2045
2036.7
2033.1
2031.7
2037.4
2038
2025.6
2028
2033.6
2037.1
2044
2035.3
2027.4
2024.3
2024.4
2030
2026.4
2025.6
2028.5
2035.8
2040
2031.2
2034.3
2036
2032.4
2036
2025.7
2019.8
2031.4
2033.2
2026
2024.3
2023.4
2021.2
2023.3
2028
2029.7
2027.2
2026.1
2029.1
2029
2030.6
2036.6
2030.2
2026
2034
2030.5
2024.7
2026.3
2029.2
2032
2031.5
2031
2028.3
2028
2031
2025.1
2023.2
2033.8
2036.6
2032
2034.5
2033.8
2026.8
2030.6
2043
2053.8
2063.2
2067.6
2073.8
2087
2089.2
2081.1
2082.2
2088.3
2086
2081.4
2084.3
2091.8
2095.5
2092
2089.1
2090.3
2085.7
2079.3
2079
2073.3
2061.6
2055.8
2047.1
2031
2021.4
2017.4
2012.7
2011.4
2014
2013
2010.8
2019
2014.7
2001
1995.5
1977.8
1984.2
2025.7
2102
2243
2432.6
2699.3
2981.9
3215
3411.6
3411.5
3103.5
2596.1
2116
1835.3
1708.9
1680
1733.8
1797
1829.5
1855.4
1897.2
1937.7
1950
1948
1954.4
1955
1959
1970
1968
1970.3
1973.3
1970.3
1976
1979.7
1977.9
1976.7
1978
1979
1978.5
1983.8
1983
1976.4
1980
1985.4
1981.4
1974.9
1985.6
1995
1983.6
1981.7
1985.1
1989.5
1998
1992.8
1992.6
1998.2
1998.4
1999
1995.7
1998.3
2004.6
2005.7
2014
2025.9
2027.5
2028.1
2034
2041
2050.8
2059.4
2067.6
2081
2094
2103.1
2112.6
2123.1
2130.9
2136
2143
2150.9
2151.7
2154.7
2158
2159
2171.1
2171.4
2166.6
2172
2164.1
2156.8
2151.2
2142.9
2140
2128.1
2114.9
2104.9
2095.1
2086
2073.1
2066.1
2066.3
2064.5
2059
2048.3
2038.3
2034.5
2028.2
2022
2025.4
2025.1
2016.9
2014.4
2013
2005.8
2003.5
2006.3
2004.2
1998
1992.3
1989.9
1991.3
1996.7
1996
1987.6
1985.9
1985.8
1990.3
1994
1982.6
1982.3
1992.5
1991.2
1988
1989.5
1993.6
1994.8
1990.1
1991
2000.3
2005.4
2007.3
2013.1
2019
2021.4
2020.8
2026.1
2039.8
2045
2037.1
2034.6
2039.5
2040
2039
2044.3
2050.3
2044.9
2037.1
2037
2040.7
2047.7
2047.6
2044.1
2048
2049.6
2049.4
2050.2
2047.5
2046
2045.4
2039.2
2034.9
2038.8
2043
2040.2
2032.1
2027.3
2026.2
2028
2030.8
2026.4
2024.1
2028.2
2026
2021.4
2024.2
2028.7
2026
2022
2025.8
2029.5
2025.6
2024.9
2027
2021.4
2014.2
2010.8
2012.4
2017
2012.7
2006.2
2015.9
2028.1
2025
2016.6
2014.8
2019.5
2016.4
2008
2009.5
2011.6
2012.9
2011.2
2007
2010.5
2011.6
2014.7
2021.3
2017
2010.8
2010.2
2010.2
2013.6
2017
2016.2
2018.3
2017.4
2009.4
2007
2007.2
2003.2
2005.1
2008.6
2008
2015.6
2022.8
2017.5
2017.8
2026
2024.2
2017.2
2017.5
2027.4
2036
2034.6
2038.5
2052
2062.9
2077
2089.3
2080.8
2069.1
2076.1
2080
2077.6
2089.9
2097.9
2094.3
2089
2082.9
2090.1
2093.4
2083.9
2076
2065
2055.7
2046.6
2048.4
2053
2027.8
2001.4
1999.1
2004.3
2005
2006.7
2016.1
2012
2004
2001
1989.7
1986.5
1982.8
2000.4
2062
2157.8
2335.3
2593.5
2874.3
3135
3342.6
3433
3248.4
2782.1
2281
1944.8
1768.1
1675.7
1686.8
1765
1797.5
1821.9
1884.5
1920.6
1918
1918.1
1928.2
1942.3
1955
1961
1964.6
1960.1
1951.5
1951.1
1956
1964.8
1973
1970
1961.8
1961
1965.7
1975.7
1988.6
1981
1961
1954.7
1954.5
1965.9
1984.3
1995
1999
1985.9
1974.6
1975.6
1973
1981.8
1996.8
1989.9
1978.7
1976
1978
1996.8
2008.3
2012
2017
2007.6
2009.9
2015.2
2018.7
2037
2050.9
2056.7
2045.5
2044.3
2067
2081
2107.5
2135.6
2128.2
2118
2125.1
2133.1
2143.3
2147.4
2152
2164.8
2157.8
2150.5
2150.3
2144
2148.7
2142.1
2126.2
2123
2117
2106.9
2104.3
2106.4
2092.9
2070
2060.4
2056.6
2056.8
2054.6
2043
2034.2
2025.8
2019.9
2019.5
2025
2032.7
2024.6
2013.3
2004.5
1990
1986.1
1992.9
2001.8
2009.3
2001
1983.8
1981.8
1990.4
1995.2
1998
1993.9
1984.3
1984.5
1982.3
1967
1964.4
1979.3
1987
1983
1980
1983.5
1993.9
2011.6
2030.8
2042
2033.1
2008.1
1999.9
2016
2024
2021.4
2030.3
2038.5
2033.5
2029
2033.7
2046.6
2061.5
2075.2
2073
2046.7
2033.1
2048.7
2059.2
2059
2065
2065.8
2056.8
2046
2046
2055.5
2053.8
2056.2
2064.2
2057
2047.7
2044.1
2043.3
2032.7
2027
2043.8
2049
2048.4
2060
2058
2045
2034.4
2022.9
2029.1
2042
2032
2022.9
2024
2029.7
2041
2036.2
2021.1
2020.8
2041.2
2053
2041.3
2034.1
2027.5
2018
2022
2028.1
2034.7
2041.2
2034.8
2031
2043.1
2050.7
2050
2057.7
2058
2044.8
2037.5
2027
2025.1
2038
2037
2032.3
2028.6
2027.5
2041
2048.1
2043.2
2039.4
2037.1
2043
2053.5
2051.9
2051.7
2059.1
2043
2022.2
2033
2038.8
2032.7
2036
2033.5
2039.1
2051.4
2054.2
2050
2049.8
2058.7
2037.7
2012.8
2027
2044.4
2054.2
2051.2
2042.1
2046
2056.9
2076.5
2084.7
2088.2
2094
2083.2
2084.9
2094.2
2089.7
2087
2091.8
2102.7
2103
2098.6
2113
2123.7
2110.6
2092.8
2081.3
2084
2092.4
2081.1
2076.8
2078.9
2056
2034.3
2034.8
2050.4
2052.8
2029
2016.4
2027.2
2031.9
2026.3
2018
2009.5
2009.2
2005.4
2017.6
2080
2184.8
2334.7
2536
2771.9
2989
3189.3
3357.6
3274
2889.2
2420
2033.2
1815.5
1720.9
1706.7
1748
1768
1801.6
1866.9
1918.5
1948
1959.7
1967.8
1964.3
1962.4
1968
1964.3
1970.2
1972
1968.9
1977
1982.3
1994
1996.5
1986.2
1982
1975.4
1975
1975.6
1976.8
1987
1986.9
1983.5
1989.6
1988.8
1980
1979.9
1985.7
1987.3
1989.6
1999
2005
1998.6
1994.7
2002.8
2007
2006.5
2011.5
2013.6
2020
2028
2021.1
2020.5
2029.1
2033.4
2042
2051
2055.1
2059.7
2067.4
2075
2083.5
2096
2106.5
2111.3
2116
2121.3
2125.3
2130.7
2132.2
2133
2136.6
2132.6
2132
2133.9
2126
2113.8
2102.2
2106.1
2109.1
2095
2089.2
2087.6
2080.4
2076.4
2068
2059.6
2059.2
2046.6
2032.1
2030
2026
2024.7
2015.7
2005.4
2011
2010.3
2001.9
1994.8
1994.1
1998
1992.8
1983.3
1975.8
1976.7
1983
1978.5
1972.7
1973.4
1968.7
1968
1975.8
1972.5
1965
1963.4
1968
1978.2
1976.7
1971.7
1975.7
1979
1981.8
1983.2
1986.6
1995.7
2000
1997.4
2002.2
2016.5
2024.1
2024
2027.6
2035.1
2042.5
2045.5
2045
2051.7
2060.5
2059
2055
2058
2060.6
2059.5
2061.1
2059.3
2056
2055.2
2052.6
2059.6
2059.2
2048
2048.7
2040.6
2031.2
2032.3
2026
2025.1
2028
2020
2013.7
2015
2018.1
2022.5
2019
2013.9
2016
2014.3
2010.5
2005.9
2011.3
2024
2020.7
2013.4
2011
2010.8
2015
2015
2013.1
2012.9
2010.6
2008
2004.4
2001.7
2005.9
2009.4
2006
2007
2011.6
2013.1
2027.7
2049
2057.8
2063.6
2061.9
2061.5
2068
2061.4
2058.8
2064.8
2063.1
2053
2036
2027.6
2031.6
2031.5
2026
2020
2015.5
2020
2015
1997
1991.3
1992.1
1996.9
1995
1982
1980.8
1982.7
1979.7
1976.2
1977
1973.8
1950.3
1953.9
2009.2
2112
2278.4
2499.4
2778.2
3051.3
3270
3419.6
3328.8
2922.2
2396.5
1986
1760
1662.6
1672.9
1740.9
1782
1805.9
1844.3
1882
1910.1
1931
1935.3
1930.6
1933.4
1937.2
1942
1949.3
1947
1951.3
1961.1
1961
1960
1957.3
1961.9
1967.6
1962
1959.6
1957.4
1957
1964.3
1968
1966.8
1965.1
1967.1
1977.2
1982
1975.7
1972.2
1966.5
1964.4
1976
1978.2
1973.3
1984
1990.1
1984
1985.5
1985.4
1982
1987.3
1995
2003.1
2011.3
2016.5
2025
2035
2043.4
2056
2064.5
2076.4
2092
2099.7
2111.8
2114.8
2122.5
2142
2141.8
2146.8
2156.4
2158
2164
2163.9
2162.1
2155.7
2148.3
2148
2140.9
2131
2119.9
2109.5
2108
2102.5
2087.7
2076.4
2071
2062
2049.3
2038.1
2028.9
2028
2029
2015
2001.2
2003.4
2003
1995
1992.6
1989.3
1984.4
1989.2
1992
1988.4
1989.5
1984.3
1980.8
1986
1983.4
1981.1
1977.4
1973.1
1976
1973.5
1971.3
1972.3
1969.4
1965
1958.8
1956
1961
1961.6
1957
1957.6
1962
1970
1966.9
1957
1967.8
1981
1979.3
1980.3
1984
1987.4
1996.3
1999.4
2002
2012
2015.5
2015
2011.5
2005.3
2006
2008.9
2010.1
2010.9
2018.9
2022
2013.9
2017.2
2016.3
2007
2013
2020.3
2017.4
2010.9
2010.1
2016
2016.3
2013.2
2013.4
2013.3
2016
2018.4
2011.5
2009.7
2014.3
2017
2018.3
2012.6
2015.4
2021.6
2015
2010.7
2009.1
2010.6
2013.5
2011
2011
2010.9
2010.1
2013.1
2013
2014.6
2020.6
2014.3
2011.4
2021
2017.7
2011.3
2014
2017
2019
2015.2
2010.3
2015.4
2014.9
2008
2010.6
2010.5
2009.2
2011.7
2010
2010.6
2013.1
2011.6
2003.9
1997
2003.6
2009.7
2000.6
1999.9
2007
2007.2
2015.8
2017.5
2010.6
2017
2017.9
2013.5
2017.7
2015.8
2009
2011.3
2013.1
2011.9
2016.8
2017
2010.9
2011.4
2011.4
2010.8
2016
2016.3
2013.9
2017.1
2020
2024
2024.3
2014.1
2015.8
2030.1
2025
2011.9
2015.4
2021.3
2026
2032
2031
2039
2059.5
2072.4
2078
2081.9
2082.1
2082.9
2086.1
2087
2084.6
2078.5
2075.6
2081.4
2090
2095.3
2100.7
2108.9
2105.7
2089
2078.4
2073.7
2067.1
2071.7
2076
2056.3
2032.6
2025.2
2025.1
2019
2006.4
2000.2
1996.9
1998.2
2007
2020.7
2036.1
2016.1
1983.3
2000
2063
2167.1
2330
2560.7
2830
3091.3
3325.1
3459.4
3352.2
2940
2385.4
1966.2
1768.2
1689.5
1710
1800.8
1833.6
1835.6
1879.9
1920
1938.4
1953.2
1964.9
1956
1945
1956.5
1956.1
1959.7
1987.7
1999
1984
1970
1972.4
1982.6
1986
1992.3
2001.4
1989.5
1977.2
1979
1973.3
1977.9
1988.5
1975.5
1963
1969.2
1975.9
1984.8
2000.9
2001
1990.2
1988.8
1977.7
1971.3
1987
1997.8
2003.8
2003.2
1997.6
1999
2002.8
2017.4
2032.3
2039.8
2039
2031.2
2037.5
2045.5
2064.4
2092
2091.2
2088
2088.5
2092
2112
2129.3
2144.6
2145.9
2138.1
2138
2142.1
2157.3
2164.6
2184.3
2192
2142.4
2122.2
2133.4
2130.9
2138
2137.1
2123.4
2106.1
2096.7
2102
2103.8
2099.8
2084.5
2063.8
2054
2049.1
2049.5
2056.9
2061.1
2066
2059.4
2021.8
1997.5
2015.7
2030
2029.7
2040
2039.4
2018.7
2002
2000.8
2014.4
2021.9
2019.7
2014
1996.5
1988
1997.9
2006.1
2020
2033.1
2011.7
1984.5
1988.4
1999
1998.1
1999.4
2010.6
2006.2
1998
2006.5
2005.2
2015.4
2032.9
2036
2048.1
2047.3
2037.5
2040.8
2049
2063.8
2074.9
2082.5
2078.4
2063
2063.5
2067.8
2067.8
2080.3
2088
2077.5
2067.6
2063.5
2069.5
2088
2089.9
2074.5
2074.6
2079.3
2073
2071.7
2073.6
2070.1
2054.5
2042
2045.9
2043.7
2050
2067.7
2068
2068.4
2073.3
2061.3
2052.7
2051
2044.6
2054.5
2064
2066
2062
2042.3
2040.3
2041.8
2037.3
2042
2032.9
2032.9
2053.6
2058.4
2053
2054.4
2049.8
2041.9
2041.2
2034
2032.1
2048.7
2050.8
2041.9
2039
2029
2030.8
2043.4
2040.5
2038
2041.1
2034.6
2029.3
2026.5
2030
2052.2
2061.7
2048
2037.7
2035
2039.7
2050.7
2054.1
2049
2047
2044.2
2036.7
2035.3
2038.8
2056
2071.7
2048.9
2032.1
2039
2040
2042.4
2038.9
2040.1
2037.4
2020
2029.8
2052.2
2052.7
2046.2
2045
2042.5
2039.3
2044.8
2051.3
2052
2052.4
2049.5
2043.7
2052.3
2073
2090.6
2102.5
2103.4
2105.5
2103
2085.9
2093.5
2110.8
2093.3
2071
2073.3
2087
2099.3
2096.5
2077
2066.4
2066.6
2059.7
2055
2053
2042.5
2038.7
2042.7
2042.9
2040
2030.5
2020
2015
2019.2
2009
1999.1
2043.5
2098.6
2184.5
2348
2563.7
2820.7
3036.3
3236.1
3346
3142.1
2730
2284
1944.6
1779
1695.5
1706.3
1754.4
1775.2
1829
1897.1
1944.9
1970.1
1977.9
1980
1980.1
1981
1981.9
1988.5
1989
1980.3
1988.6
1997.3
1990.3
1987
1987.9
1989.8
1989.6
1989.7
1990
1988.5
1994.4
1994.4
1992.2
2004
2005.4
1991.8
1992.2
2006.8
2010
2004.5
2007
2006.2
1999.1
2003
2008.6
2006.9
2013.8
2017.8
2012
2016.3
2022.1
2023.7
2024.4
2028
2037.1
2038.9
2046.4
2057
2061
2070.3
2075.1
2084.4
2099.1
2102
2105.4
2114.4
2125.4
2129.2
2130
2143.4
2155.4
2159.3
2156.8
2148
2146.6
2145.7
2132.6
2126.3
2129
2124.2
2115.8
2103.9
2103.2
2114
2102.2
2081.9
2076.9
2072.3
2061
2049.2
2037.4
2028.8
2030.3
2030
2021.1
2018.5
2020.6
2015.6
2012
2011.5
2003.4
1994.5
1993.4
1991
1987.5
1986.8
1979.7
1975.5
1979
1973
1964.9
1967.4
1972.1
1970
1964.8
1965.9
1969.9
1971.6
1971
1970.5
1977.5
1986.8
1983.5
1980
1989.6
1997.5
2000.6
2006
2014
2023
2024.7
2025.7
2037.9
2045
2040.7
2043.6
2049.2
2051.1
2058
2063.3
2061.5
2063.2
2059.3
2064
2072.2
2042.5
2094.1
2029.8
2054
2108
1912
2288.2
1697.7
