1860.3
1870
1871.3
1870.5
1871.4
1878.4
1889
1886.1
1887.9
1890.5
1891.5
1897
1894.1
1895.2
1897.6
1900.1
1911
1910.7
1903.3
1907.8
1914.6
1916
1915.1
1911.7
1913.4
1924.3
1929
1926.6
1925.2
1918.9
1924.8
1935
1925.5
1925.1
1930.5
1926.3
1923
1915.1
1912.4
1915.9
1919.4
1922
1920.3
1922.6
1921.2
1915.7
1919
1921.1
1918.3
1921.9
1927.4
1928
1927.4
1929.4
1937.6
1939.6
1933
1931.3
1932
1937.7
1940.9
1933
1936.3
1955.9
1975.3
1992.6
2006
2014
2026.2
2041.5
2055.1
2076
2098.3
2102.5
2091.9
2078.1
2068
2056.5
2032.8
2015.9
2009.4
1994
1975.5
1959.6
1946
1938.3
1922
1899.7
1898.1
1902.2
1895.2
1892
1890.2
1887.1
1889.3
1910.2
1982
2099.5
2204.9
2323
2552.8
2815
2871.8
2654.9
2328.7
2064.3
1887
1717.8
1563.2
1539.8
1631.3
1739
1835.6
1890.9
1914.4
1933.5
1936
1934.2
1940.7
1949.6
1958.8
1967
1974.9
1977.8
1975.4
1987.2
2004
2000.5
1996
2002
2015.1
2024
2018.8
2023.6
2035.9
2047.6
2057
2055.6
2065.3
2080.1
2082.1
2084
2092.2
2105.8
2115.1
2115.7
2130
2153
2160.4
2173.7
2193
2204
2229.6
2260
2281.6
2313
2343
2363
2390.2
2412.9
2436
2460
2466
2484.5
2512.2
2520.9
2520
2510.5
2490.3
2460.6
2420.9
2384
2349.7
2302.8
2255.4
2217
2183
2153.9
2120.9
2089.2
2068.5
2049
2030
2016.2
2001.6
1992.6
1983
1968.6
1970.5
1971.9
1966.8
1970
1969
1968.5
1968.2
1964.6
1963
1961.8
1965
1963.1
1964.1
1977
1979.8
1974.1
1973.5
1978.3
1991
1997.7
1988.7
1988.2
1997.1
1997
1992.7
1987
1984.7
1985.3
1985
1988
1987.3
1986.2
1990.9
1997
2000
1994.2
1987.9
1992.2
1999
2002.7
2001.9
1992
1996.5
2005
1994
1996.2
2003.1
2004
2003
1989.7
1994.2
2001.1
1995.5
2001
2008.7
2014.6
2010.1
2004.1
2008
2006.1
2005.2
2003.2
1998.9
2000
1996
1992.1
1994.7
1994.8
1990
1988.5
1992.7
1991.1
1986.9
1990
1991.1
1988.7
1992.1
1989.7
1984
1987.4
1990
1999.7
2017.6
2034
2058.3
2074.3
2068.6
2068.5
2090
2116.4
2129.8
2128
2125
2122
2116.1
2112.6
2095.6
2080.4
2076
2056.6
2042.8
2037.5
2020.3
2003
1988.8
1974.5
1965.2
1967.6
1973
1971.7
1967.8
1957.1
1955.1
1980
2040.5
2139.9
2237.4
2346.4
2560
2823.7
2919.5
2750.9
2446.1
2174
1984.8
1821.2
1663
1603.1
1668
1769.2
1867.7
1943.7
1975.3
1981
1982.5
1991.6
1998.9
2008.7
2020
2016.9
2012.6
2010.5
2019.1
2030
2020
2017.8
2027.8
2032.3
2037
2038.7
2044.7
2056.7
2058.4
2053
2056.1
2064
2066.9
2072.4
2084
2095.4
2108.2
2123.3
2134.7
2147
2164.8
2179.4
2190.8
2208.2
2229
2246.9
2263.9
2285.1
2312.3
2341
2370.3
2399.8
2419.2
2439.5
2470
2496.3
2519.3
2538.4
2551
2560
2564.6
2561.9
2535.6
2500
2470
2430.9
2388
2344.1
2311.7
2283
2230.2
2183.8
2157.9
2132.9
2113
2092
2064.2
2044.8
2031.9
2021
2016.3
2003.2
1986.5
1980.8
1982
1982.4
1975.1
1969.4
1971.9
1968
1963.5
1968.4
1965.4
1967.5
1975
1966.5
1973
1994
2004.1
2008
1998.6
1984.7
1987.8
1995.2
1990
1984.4
1985
1982.9
1985.8
1987
1979.8
1982.8
1985.1
1986.5
1988
1977.7
1979.3
1982
1982.8
1991
1982
1973.1
1975.7
1976.5
1978
1973.7
1964.6
1961.2
1959.7
1955
1948.4
1940.3
1938.8
1944.7
1943
1939.6
1943.8
1939.2
1932.8
1934
1926.9
1920.2
1920.5
1920.7
1926
1926.8
1914.5
1910.1
1915
1908
1903.7
1910.1
1899.1
1889
1896
1902.3
1921
1938.7
1942.3
1953
1966.6
1976.9
1985.2
1999.2
2024
2037.2
2027.3
2015.9
2016
2013
1996.2
1972.3
1951.9
1938.5
1926
1906.2
1887.2
1883.1
1871.8
1855
1851
1838.1
1833.4
1843
1838
1829.7
1824.2
1827.3
1883.3
1997
2121.9
2239.4
2403.8
2685.5
2851
2665.3
2338.4
2037.9
1828.4
1700
1536.6
1453.8
1502.3
1598.8
1719
1802.1
1839.5
1858.4
1868.2
1876
1883.6
1895.8
1905.7
1918.6
1932
1935.4
1943.3
1950.4
1949.2
1953
1955.6
1957.3
1972
1986.8
1987
1983.3
1987.6
2002.1
2012.7
2013
2021.9
2040.2
2049.9
2047.5
2052
2062.5
2063.3
2074.9
2090
2103
2130.5
2143
2148.4
2172
2198
2225
2252.6
2279.4
2307.1
2335
2364.8
2393.6
2422
2446.9
2468
2489.5
2504.7
2511.4
2509.6
2495
2471.1
2442.5
2410
2370.8
2330
2288.3
2238.2
2195
2159.2
2127
2100.5
2062.9
2033.1
2023
2008
1990.1
1975.5
1963.9
1959.6
1954
1941.8
1936.8
1938.8
1933.1
1925
1924.2
1922.5
1915.6
1913.6
1914
1909.5
1907.4
1912.9
1926
1934
1926.6
1922.5
1929.3
1937
1938
1932.4
1931.5
1935.3
1940.7
1939
1931.3
1935.9
1933.9
1925.1
1925
1925
1935.5
1941.7
1931.8
1930
1936.2
1939.8
1942.6
1946.4
1949
1946.6
1943.3
1946
1947.1
1946
1951.9
1953.5
1946
1942.2
1943
1942
1939.7
1939
1939.8
1943
1947.7
1948.5
1945.4
1943
1942
1937.9
1933.7
1939.2
1948.1
1950
1950.1
1950.4
1948.3
1953.1
1953
1943.8
1945.8
1941.2
1943.7
1963
1962.2
1959
1960
1961.6
1967
1962.1
1964.8
1971.2
1975.7
1998
2021.7
2032.7
2041.7
2050.8
2066
2081.2
2083.4
2101.9
2129.4
2131
2119.2
2103.6
2095.6
2088.1
2067
2051.7
2041.4
2026.1
2012.3
2002
1994.2
1983.8
1964
1945.6
1939
1939.7
1945.5
1948.6
1950.2
1956
1954.4
1972.9
2063.5
2182.4
2289
2448.3
2690.9
2910.2
2882.7
2595
2288.7
2062.5
1880.6
1705
1601
1645.1
1738.5
1838.1
1933.5
1972
1985.2
1992.7
1993.1
2000.6
2007
2009.4
2013.9
2018.5
2025.9
2035
2036.6
2038.1
2047.5
2059.2
2068
2066.9
2062.6
2072.8
2082.1
2079
2086.4
2099.4
2100.2
2104.8
2120
2132.7
2141
2144.4
2155
2166
2164.2
2175.8
2195.1
2216.2
2235
2236
2248.7
2268.8
2285.1
2312
2330.3
2345.1
2377.8
2408.5
2432
2462.9
2486.7
2506.3
2531.3
2551
2562.9
2562.6
2551.5
2535.9
2516
2489
2448.7
2404.4
2368.9
2333
2286
2237
2196.4
2158.7
2126
2101.4
2075.8
2058
2052.8
2037
2016
2009.7
1999.4
1990.3
1989
1981.2
1983.5
1984.9
1978
1976
1970.9
1973.9
1980.3
1978.8
1979
1980.7
1984.7
1988.4
1988.2
1988
1989.5
1994.5
1997.9
1992.3
1986
1988.9
1993.2
1991.6
1987.6
1989
1992.6
1989.4
1988.9
1993.3
1995
1997.8
1997.8
1994.6
1994.9
1999
2003.7
2004.7
2003.8
2004.5
2003
2001.8
2005
2002.9
1997.2
1993
1985.8
1983
1982.3
1978.6
1980
1984.9
1982.5
1971.2
1970
1983
1983
1965.9
1959.4
1968
1976
1977.1
1973.6
1974.4
1977.6
1973
1968.3
1970.7
1972
1968.6
1970
1974.4
1971.8
1969.1
1966.5
1967
1972.7
1964.9
1957.2
1966.6
1978
1986.5
1993.1
2003.8
2026.4
2041
2041.9
2053.3
2071.2
2096.9
2121
2117.9
2110.1
2103.1
2101.5
2107
2094.4
2073.5
2048.5
2039.9
2041
2021
2016.5
2009.8
1981.5
1968
1960
1956.1
1964.5
1969.6
1967
1962.7
1965.8
1993.9
2068.9
2179
2287.5
2409.8
2617.2
2889.4
2974
2739.9
2412.1
2148.6
1976.5
1843
1685.9
1629.7
1689.7
1789.1
1904
1968.1
1988.9
2000.1
2008.7
2022
2024.4
2021.5
2029.9
2045
2051
2051.8
2060.6
2065.1
2067.6
2074
2075
2076.7
2074.2
2079.2
2091
2087.8
2092.3
2100.7
2099
2105
2111.4
2107.3
2102.4
2110.9
2129
2140.5
2146.4
2154.4
2167.9
2180
2185.4
2196.5
2216
2236.2
2257
2279.4
2300.5
2315.6
2332.4
2361
2388.3
2404.9
2425.3
2451.4
2470
2485.9
2500.9
2504.6
2506.6
2493
2454.1
2426.5
2398.5
2355.1
2312
2261.7
2218.6
2187.2
2149
2112
2081.8
2051.6
2026.1
2002.9
1976
1957.1
1947.5
1934.9
1919.9
1912
1909
1899.3
1889.2
1891.9
1894
1885.4
1881.2
1879.9
1873.9
1872
1868.5
1862.4
1871.7
1879.9
1879
1892.1
1904.1
1902.7
1901.2
1900
1902.2
1906.3
1901.1
1891.9
1895
1901.7
1896.2
1890
1889.2
1886
1885.7
1886.9
1880
1876.5
1877
1876.6
1888.3
1896.4
1896.9
1900
1899.1
1903.8
1908.3
1909.6
1922
1925.9
1914.2
1914.7
1921.6
1925
1927.8
1918.6
1919.7
1932.9
1933
1929.4
1924.5
1924.8
1931.6
1930
1930.6
1938.4
1939.4
1937.2
1938
1938.8
1942.1
1942.5
1941.7
1945
1943.3
1940.1
1937.7
1936.5
1940
1951.5
1973.2
1991.6
2014
2036
2037.7
2040.2
2049
2069.1
2094
2093.5
2090.2
2095
2087.1
2070
2050
2035.9
2030.4
2014.9
1991
1981
1976.7
1963.1
1946.2
1932
1919.2
1908.1
1905
1907.1
1914
1918.6
1910
1915
1962.8
2052
2163.2
2269.2
2421.1
2699.4
2899
2790.8
2511.4
2204.8
1961.8
1807
1643.7
1544.7
1570.4
1668.4
1792
1876.4
1914.8
1928.8
1942.5
1960
1958.9
1957.1
1965.7
1971.9
1980
1984.6
1977.3
1980.3
1996
2002
2003.2
2009.5
2016.2
2021.9
2030
2038.9
2041.5
2041.5
2050.6
2064
2069.1
2069.3
2071.5
2078.7
2090
2097.1
2102.1
2114.2
2132.7
2143
2145.4
2156.3
2171.2
2189.4
2210
2226.7
2253
2280.2
2300.5
2327
2355.4
2381.9
2407.2
2431.4
2457
2477.6
2488.5
2495.5
2502.6
2499
2480.7
2458.4
2431.8
2399.8
2362
2317.2
2276
2237.6
2199.9
2163
2126
2099.3
2075.2
2048.9
2028
2013.9
2010.6
2004.1
1990
1985
1986.4
1983.8
1978.4
1976.1
1974
1967
1963.9
1968.3
1964.2
1958
1964.5
1968.9
1970.4
1975.4
1975
1976
1980.4
1975.8
1975.9
1986
1990.8
1991.8
1984
1980.2
1989
1987.3
1979.8
1972.9
1975.3
1980
1972.2
1975.6
1978.6
1974.3
1983
1983
1974.8
1983
1989.4
1984
1986.6
1991.5
1989.9
1989.8
1994
1998.9
1999.2
1999.3
1997.7
1998
2006.1
2005.3
1998.5
2003.4
2007
2002
2002.5
2006.1
2015.1
2018
2005.1
2006.2
2011.2
2009.2
2009
2002.2
2005.2
2012.4
2007.7
2004
2003.6
2001.8
1998.4
1999.5
2007
2007.9
2000.9
1998.7
1996.2
1994
2000.7
2005.1
2010.1
2013.2
2010
2007.1
1998.8
2001.4
2008.1
2013
2037.5
2058.5
2069.7
2081.9
2086
2094.5
2109.3
2119
2141.5
2161
2154.4
2149.8
2137.7
2121.8
2113
2086.3
2065.6
2053.6
2042.5
2038
2023.4
2009.5
1994
1976.9
1971
1967.7
1970.5
1970.9
1970.8
1971
1967.8
1981.2
2012.2
2099
2223
2315.8
2475.7
2746.1
2922.8
2841
2568.4
2277.5
2061.2
1884.3
1714
1622.9
1661.7
1768.3
1876.6
1956
1990.8
2006.8
2021
2026.4
2022
2023.6
2041.2
2045.5
2044.9
2055
2055.4
2060.9
2071.3
2073.7
2076
2073.3
2071.7
2077.9
2087.8
2093
2085.6
2081.6
2095.7
2109
2105
2102.3
2114.1
2125.6
2132
2144
2156.1
2165.3
2184.5
2199.6
2208
2228.5
2246.2
2257.7
2273.3
2291
2312.8
2330.9
2349.9
2388.1
2426
2453
2487.6
2511
2530.4
2558
2568.6
2578.3
2585.1
2574.8
2560
2538.6
2511.3
2476
2436.3
2396
2351.9
2308.9
2259
2216.3
2186
2148.8
2121.1
2098.8
2071.9
2054
2038.4
2023
2012
2007.6
2004
1997.9
1995.8
1985.9
1982.4
1991
1986.4
1982.5
1985.3
1987.3
1996
2001.4
2000.1
2001
2004.1
2005
2004.4
2004.6
2006.6
2015
2022
2016.6
2009
2006.1
2004.8
1997
1988.8
1996.2
1999.9
1994.2
1994
1992.1
1991.5
1994.5
1995.4
1995
1995.5
1999.6
2002.5
2009.5
2010
1995.8
1991.6
1989.1
1989.7
1993
1981.2
1983
1989.6
1983.9
1982
1980.2
1984.9
1990.6
1982.5
1974
1971.2
1968.2
1968.8
1967.7
1969
1977
1972.4
1966.6
1968.8
1967
1964.4
1959.2
1960.6
1970.4
1969
1961.8
1964.6
1974.1
1983.4
1988
1987.5
1986.8
1982
1979.9
1988
1992.9
1996.2
2007.9
2023.1
2038
2059.8
2082.5
2087
2089.4
2106
2126
2146.7
2154.6
2151.6
2147
2133
2121.5
2111.5
2099.6
2086
2064.8
2052.5
2044.1
2032.8
2025
2009.5
1987
1966.4
1963.3
1971
1968.2
1964.2
1956.3
1955.1
1976
2022
2114.8
2224.1
2329.1
2516
2792.3
2947.4
2802.9
2491
2204
2002.5
1875.1
1720.7
1615.8
1657
1737
1838.8
1930.8
1965.6
1984
1987.4
1990.6
2000.8
2008.2
2014
2014.9
2018.8
2023.8
2035.2
2046
2039.5
2034.7
2035.9
2043
2052
2048.1
2050.9
2059.4
2058.8
2060
2064.3
2068.1
2071.7
2075.4
2082
2090.4
2096
2100.5
2110.2
2121
2129
2137.1
2142.9
2158.3
2177
2190.4
2219.8
2244.8
2259.1
2275
2285.3
2313.8
2346
2366.7
2396
2425.8
2448.1
2459
2468.1
2477
2472.2
2465.7
2452.2
2426.4
2399
2362.3
2316.8
2271.4
2229.5
2199
2165.1
2115.2
2081.8
2060.9
2028
1999.4
1974.3
1951.9
1938
1923
1909.7
1900.8
1891
1882.3
1874
1867.7
1868.2
1863.5
1858.3
1868
1876.3
1874.9
1876.9
1879.6
1878
1881.5
1889.3
1895
1903.8
1906
1903.5
1915.6
1921.1
1927.7
1940
1935.2
1936.2
1929.8
1927.6
1942
1934.8
1932.4
1932.2
1926
1930
1926.2
1928.4
1934.4
1939.4
1948
1944.6
1944.2
1949
1947.7
1943
1940.3
1948.1
1949.8
1940.1
1937
1939.5
1944.5
1950.8
1949.5
1948
1948.6
1942.2
1943.2
1946.2
1944
1953.5
1959.8
1956.4
1956.3
1949
1941.6
1947.5
1945.6
1946
1951
1939.6
1938.4
1940.9
1937
1940
1942.8
1949.4
1941.2
1930.9
1939
1938.9
1942.3
1955.9
1967.6
1987
2008.5
2019.2
2023.3
2033.7
2046
2056.4
2076
2093.1
2097.4
2089
2070.3
2059.8
2052.7
2037.1
2021
2007.4
1995.6
1981.7
1968.8
1963
1953.4
1934.2
1917.8
1912.9
1916
1917.5
1915.3
1918.6
1922.7
1921
1945.5
2027.1
2140
2257.5
2401
2636.4
2882.2
2854.2
2569
2260
2006.6
1836.8
1674.7
1552.6
1575
1665.4
1783
1883.9
1923.3
1947
1963.8
1965.2
1969.6
1984.2
1992
1991.4
2001.1
2015.4
2015.4
2015
2023.1
2027
2040.3
2051.3
2050
2059.5
2066.7
2070.5
2076.2
2078
2087.4
2095.3
2096.5
2102.4
2114
2123.5
2123
2127.6
2152.3
2169
2167.8
2182.3
2206
2223.3
2238
2248.4
2268.8
2295.5
2314.7
2337
2360.4
2378.4
2403.2
2429.4
2460
2493.4
2504.2
2521.9
2549.5
2558
2563.2
2554.4
2534.9
2524.5
2500
2455.2
2417
2388.6
2351.6
2306
2262.5
2222.3
2187.4
2160.6
2130
2095.5
2078.8
2071.6
2054
2038
2033.9
2028.8
2019.9
2020.2
2021
2011.4
2007.4
2011.2
2015.2
2015
2008.4
2007.6
2009.1
2005.5
2009
2018
2020
2018.3
2016.9
2016
2020.6
2027.5
2031.1
2026.3
2017
2014.2
2015.1
2014.2
2008.6
2004
2006.9
2005.2
2000.4
2005.4
2012
2010.3
2008
2011.1
2013.6
2012
2009
2008.6
2014.5
2017.3
2016
2020.9
2023.4
2017.5
2011.3
2013
2020.5
2018.2
2008.9
2011.2
2019
2021
2022.5
2020
2015.9
2018
2019.4
2019.1
2019.1
2021.1
2023
2020.1
2018.8
2019
2018
2015
2009.2
2008.4
2007.8
2000.7
2004
2015.6
2010.5
2000.5
2007.1
2016
2013.9
2007.1
2005
2013.7
2033
2051.1
2063.2
2080.8
2097.1
2098
2097.4
2111.3
2136.4
2160.1
2164
2153.9
2149.9
2138.6
2123.2
2111
2089.4
2073.8
2061.3
2050.3
2041
2022.9
2011
1990.7
1973.1
1974
1968.4
1971.9
1976.8
1978.4
1982
1974.9
1996.4
2070.4
2167.4
2269
2380.5
2578.6
2866.7
2948.2
2722
2443.8
2200.4
2002.4
1831.6
1678
1646.7
1709.6
1810.7
1919
1979
2001.6
2008
2017.9
2028.7
2030
2037.6
2046.6
2051.2
2054.1
2058
2068.1
2073
2071.7
2079
2088
2091.7
2101
2108.3
2106.9
2111
2122
2126
2119.3
2122.9
2135
2133.4
2134.6
2150.6
2162.5
2174
2189.5
2198
2211.9
2223.6
2226
2241.5
2261.7
2278.1
2296.9
2316
2341
2367.5
2390
2419.6
2455
2481.2
2500.6
2524.1
2547.6
2566
2577.8
2578.8
2572.4
2566.7
2555
2526.4
2487.8
2447.7
2405
2359
2316.5
2280.1
2240.4
2203.9
2176
2149.9
2128.7
2105.4
2083.9
2074
2061.5
2045.4
2036
2029.5
2023
2016.9
2011
2010.4
2009.3
2003
2000.1
2004
2013.3
2006.7
1996
2007.3
2013.7
2015.8
2016.6
2015
2029.9
2034.7
2025.9
2024.3
2022
2023.7
2027.5
2018.8
2017.7
2021
2011.6
2012.6
2011.4
2005.3
2016
2018.2
2013
2018.2
2015.2
2007
2009.5
2010.8
2012.9
2016.6
2013
2010.7
2007.7
2003.4
2005.5
2012
2013.9
2003.9
1995.3
2000.4
2005
1999.2
1994.5
1996.8
1999.6
1996
1993.1
2001.1
2002.9
1992.6
1985
1982.3
1984.2
1988.2
1995.5
2002
2002.7
2007.9
2012.1
2011.5
2017
2022.2
2020.7
2020.7
2028
2043
2056.6
2060.1
2068.1
2091.6
2105
2104.4
2119.8
2140.1
2153.5
2163
2166
2171.3
2161.3
2145.7
2138
2118.4
2101.9
2083.3
2063.9
2058
2051.7
2044.6
2019
1990.6
1990
1988.6
1984.3
1990.4
1992.9
1987
1982.3
1990.2
2033.8
2121.9
2233
2332.1
2479.8
2764.8
2960.2
2851
2571.6
2269.3
2047.8
1914.3
1761
1640.4
1647.5
1726.1
1828.6
1926
1962.8
1973.7
1989.4
1988.8
1988
1997.7
2006.4
2011.9
2019.6
2025
2026.7
2030.7
2034.9
2036.6
2037
2038.9
2046
2050.3
2050.5
2053
2055
2055.6
2054.6
2059.1
2065
2066.7
2075.8
2081.7
2088
2102
2107.2
2114.4
2123.8
2127
2134
2144
2160.4
2186.7
2211.9
2233
2255.3
2278.4
2304.3
2333.5
2362
2389.5
2414.4
2438
2466.6
2491
2502.4
2508.9
2511.3
2509.6
2503
2480.8
2450.3
2421.1
2385.1
2341
2303.6
2274.2
2234.3
2192.6
2158
2127
2107.6
2082
2051.8
2037
2024.4
2014.7
2008.3
1997.3
1989
1982.6
1972.5
1965.7
1967
1967
1958.8
1951.3
1952.9
1956.9
1956
1959.2
1967.6
1965.1
1958.4
1959
1962.1
1968.3
1969.2
1964.9
1970
1973.1
1962.7
1953.9
1954
1958
1958.2
1948.3
1943.3
1947.1
1944
1939.5
1940.3
1939.1
1939
1945
1948.6
1948.3
1952.8
1954.1
1956
1963.2
1959.9
1959
1959.6
1954
1960.4
1961.3
1949.6
1952.7
1959
1954.1
1955.5
1960
1965.2
1971
1965.1
1963.1
1969.2
1971.4
1967
1958.5
1958.1
1961.1
1960.1
1961
1960.2
1957.8
1961.8
1965.7
1965
1967.4
1969.2
1971.9
1994.5
2014
2017.2
2036.7
2049.9
2056.2
2069
2070.2
2090.8
2114.5
2106.7
2094
2083.9
2076.3
2069.8
2047.2
2022
2015.3
2007.1
1991.2
1981.8
1978
1964.7
1936.1
1922.7
1927.3
1928
1930.9
1932.4
1927.5
1927.8
1926
1948.8
2039.6
2146.7
2246.9
2379
2605.2
2875.9
2887.2
2626.7
2339
2089.4
1910
1734.6
1598.4
1611
1694.5
1807.7
1900.8
1941.2
1973
1981
1974.8
1981.5
1988.3
1990
1996.9
2004.3
2003
2006.3
2014
2016.2
2024.9
2035.1
2036.2
2038
2047.1
2058.2
2059.5
2064
2081
2086.4
2082.3
2088.7
2099.8
2108
2114.4
2115.7
2121.4
2140.7
2157
2159.9
2164.2
2180.4
2202.4
2216
2224.1
2247.5
2278.5
2298.1
2315
2340.6
2369.8
2391.6
2412
2441
2468.8
2486.9
2503.9
2523.9
2536
2536.4
2528
2510.5
2494.5
2472
2429.3
2391.5
2362.8
2318.5
2269
2230.8
2196.8
2166.3
2139.2
2111
2088.5
2072.1
2052.6
2034.3
2025
2017.8
2006.7
1998.8
1995.5
1992
1985
1974.2
1970.7
1974.1
1974
1973.3
1972.8
1972.3
1978.3
1982
1981.3
1988.4
1990.3
1985.8
1990
1994.1
1994.6
1992.6
1988.4
1986
1987.7
1986.7
1971.4
1966.7
1977
1973.3
1969.7
1972
1972.9
1976
1971.3
1966.9
1972.8
1978
1977
1977.9
1985.5
1991.4
1994.2
1999
2002.3
2001.3
1998.6
1996
1997
1996.8
1989.2
1989.3
2002.8
2006
1998.8
2000.7
2001.7
2002
2004
1997
1993.9
1993.3
1992.9
1996
1989
1981.9
1986.1
1991.1
1990
1987.3
1988.6
1988.2
1986.2
1990
1994.1
1993.8
1995
1996.6
1998
2000
2003.3
2021.2
2045.5
2057
2064.9
2073.1
2077.4
2090.6
2104
2115.5
2143.7
2154.8
2139.3
2131
2124.7
2115
2101.6
2085.5
2071
2054.2
2040.4
2027.3
2017.7
2013
1996.9
1975.3
1966.2
1970.9
1976
1976.6
1977.5
1967.3
1957.4
1969
2024.5
2136.9
2244.2
2344.7
2538
2797.9
2927.9
2786.8
2486.7
2216
2023.8
1861.3
1689.1
1610.1
1672
1763.8
1857
1933.5
1965.2
1980
1981
1980.8
1989.9
1996.3
1997
2000.9
2012.2
2017.3
2016.6
2022
2029.3
2031.4
2031.3
2037.7
2046
2043.2
2037.3
2041.1
2049.1
2053
2054.6
2058.1
2065.1
2077.6
2085
2085.1
2093
2101.8
2112.8
2126
2130.8
2147.7
2172.3
2185.8
2196
2212.9
2240.9
2266.3
2288.1
2315
2340.7
2366.5
2390.1
2413.2
2436
2456
2483.9
2508.5
2522.7
2539
2543.8
2528.2
2514
2500.4
2467
2421.2
2381
2346.4
2303.3
2258
2223.6
2188
2153.4
2125.5
2103
2088.9
2070.6
2048.6
2037
2026
2015.9
2014.4
2001.4
1989.1
1993
1986.5
1977.1
1979
1983
1980
1975.6
1980.7
1975.4
1969.5
1975
1972.8
1975.4
1978.5
1977.7
1981
1977.3
1976.7
1978.4
1979.1
1985
1986.1
1982.2
1975.1
1970.3
1979
1984.7
1978
1981.5
1981.6
1971
1970.6
1965.8
1964
1968.9
1966
1967.7
1966.6
1960.7
1962.3
1964
1960.8
1953.3
1944.2
1947.6
1955
1951.3
1949.6
1945.4
1945.5
1946
1933.9
1934.1
1930
1926.7
1936
1924.1
1920.9
1936
1929.7
1916
1916.4
1918.7
1913.8
1903.7
1897
1902.5
1905.5
1895.5
1893.4
1899
1894.8
1892.4
1895.7
1896.1
1893
1893.1
1907.9
1927.4
1945
1964
1976.9
1987.4
1998.1
2007.3
2030
2056.5
2058.5
2049.3
2032.1
2016
2017.4
2004.2
1981.6
1960.5
1938
1931.8
1918.8
1897.7
1889.6
1872
1844.6
1835.3
1834.8
1828.8
1830
1834.6
1830.1
1826.5
1839.7
1898
2006.2
2113.1
2229.5
2431.1
2702
2837.1
2665.7
2339.4
2060.2
1871
1725.2
1566
1494.5
1550.8
1643
1746.6
1822.8
1857
1879.6
1885
1878.5
1885.3
1905.5
1916.7
1916
1920.7
1932.9
1943.1
1954.4
1961
1962.7
1970.3
1965.9
1964.1
1978
1980.4
1984.9
1993.2
1993.6
2002
2012.8
2017.8
2024.9
2028.3
2026
2031.3
2045.4
2062.1
2071.6
2077
2093.2
2111.8
2127.7
2143.2
2163
2189.8
2212.6
2237.4
2269.1
2298
2326.8
2354
2375.2
2400.1
2426
2444.8
2462.2
2473.7
2482.4
2483
2469.3
2457.7
2429.9
2393
2361
2313.5
2270.1
2229.4
2184.7
2149
2114.2
2085.7
2055.4
2021.9
2006
1992.3
1965.6
1950.1
1952
1948
1935.3
1925.2
1920.8
1924.8
1926
1915.9
1909.5
1909.5
1912.1
1909
1902.5
1911.1
1913
1912.7
1918
1910.8
1917.7
1926.2
1924.9
1934
1936.3
1933.7
1931.7
1927.6
1924
1917.6
1914.8
1913.6
1916.7
1916
1905.4
1908.7
1915.1
1916.1
1920
1915
1912.1
1913.9
1916.5
1921
1923.3
1928.1
1925.9
1927.2
1935
1925.6
1918.7
1924.4
1928
1929
1924.2
1919.7
1924.5
1930.3
1930
1927.1
1925.2
1928.6
1933
1931
1927.5
1930.5
1939.4
1937.8
1935
1944.3
1941.8
1934.4
1933.1
1934
1945
1947.9
1941
1942.6
1947
1947.6
1946.4
1946.4
1947.3
1942
1937.4
1944.9
1947.9
1945.6
1956
1972.1
1991
2012.3
2024.1
2027
2034.3
2048.3
2064.5
2084.7
2100
2097.3
2084
2071.9
2067.9
2060
2038.7
2020.3
2003.4
1991.7
1988
1973.1
1957.9
1952.3
1940.4
1927
1921.6
1918.9
1920.9
1930.5
1929
1920.8
1931.4
1965.6
2051.4
2165
2257.2
2414.1
2675
2877.6
2841
2575.9
2269.8
2045.5
1867
1690
1581.6
1610.8
1716.1
1828.3
1913
1950.7
1976.3
1985.8
1980.1
1980
1979.4
1994
2004.9
2002.3
2007
2007.6
2010.9
2020.3
2021
2024
2034.4
2038.5
2041.3
2050.9
2056
2055.9
2059.2
2065.3
2075.2
2086
2089.8
2092.2
2095.4
2099.9
2112
2129.1
2141.9
2144.3
2153
2174
2193.6
2209.4
2217.1
2236.4
2270
2288.7
2305.8
2329.7
2353.4
2381
2406.8
2433.1
2459.4
2480.1
2501
2517.9
2523.8
2528.2
2526.3
2512
2495.6
2466.5
2421.9
2382.5
2351
2311.3
2261.1
2218.9
2192.2
2166
2135.5
2107.6
2080.3
2060
2044
2023.2
2014.1
2012.9
2004.6
1994
1982.1
1974.6
1977
1977.5
1969
1964.7
1967
1961
1959.7
1971
1973.5
1969.2
1970.7
1977.3
1983
1981.5
1977.9
1980.2
1988.5
1991
1983.6
1984
1991.4
1988.5
1979
1974.6
1975
1977.3
1978.2
1974
1973.1
1979.1
1979.5
1983.5
1992
1986.8
1979.7
1979.9
1986.9
1996
1992.4
1987.3
1992.1
1994.3
1994
1999.7
2003
1998.5
1997.7
1996
1989.8
1991.5
1992.9
1993
1998
1999.1
2001.8
2001.7
1993.4
1993
1994.9
1983.8
1974.5
1985.4
1996
1993.5
1996.1
1998.3
1998.9
1999
1989.9
1990.2
1996.6
1995.7
1992
1988.2
1990.6
1989.6
1990.9
2000
1996
1987.4
1988.6
1996
2015
2036.8
2047
2059.6
2075.7
2083
2089.8
2101.6
2121.5
2146.9
2152
2137.2
2131.8
2130.4
2118.5
2099
2074
2057
2052.8
2047
2032
2015.5
2002.1
1982.1
1968.5
1969
1964.3
1962.7
1972.1
1977.6
1972
1962.5
1980.4
2061.4
2169
2260
2380.3
2601.1
2861.2
2887.8
2628
2334.1
2109.1
1950.5
1797.5
1644
1615.1
1683.2
1778
1877.6
1935
1955.9
1966.2
1969.9
1975.3
1987
1994
1992.9
1990.9
1998.1
2003
2003
2017.4
2023.8
2025.1
2038
2042.5
2049.7
2053.9
2044
2047
2058.9
2059.9
2060.2
2072.4
2092
2106.7
2108.4
2109.2
2118
2131
2140.5
2142.3
2156.1
2178.6
2200
2220.5
2225.8
2239.8
2266
2283
2306.8
2334.2
2356.8
2377
2400
2432.3
2459.1
2477
2488.7
2503
2521.8
2524.2
2523.7
2522.1
2501
2476.9
2449.8
2411.1
2378.9
2343
2290
2246.1
2210.5
2168.5
2131
2100.8
2077.9
2059.7
2038.4
2016
2001.4
1992.5
1979.1
1975.9
1975
1954
1938.7
1938.9
1941
1944
1940.9
1937.1
1939.4
1935.6
1930
1931.9
1933.6
1940.8
1948.3
1947
1948.2
1946.5
1942.9
1945.4
1949
1951.3
1949.7
1944.4
1940.8
1938
1937.1
1935.7
1922.9
1919.8
1928
1920.9
1916
1917.5
1916.7
1923
1924.1
1916.1
1911.6
1908.3
1903
1898.7
1893.3
1889.6
1884.9
1882
1888.8
1891.2
1887.4
1886.2
1884
1882.4
1882.8
1883.8
1886.1
1887
1880.3
1870.2
1871.5
1877.5
1878
1876.4
1872
1872.3
1874.4
1873
1877.2
1879.8
1879.3
1883.8
1887
1887.2
1887
1882.5
1882.6
1891
1893.7
1893
1896.1
1904.4
1925
1951.2
1966.4
1978.2
2003.4
2019
2010.1
2014.2
2044
2074.5
2080
2065.7
2063.3
2061.7
2048.9
2034
2015.4
2002.2
1988.3
1973.5
1966
1952
1934.8
1920.9
1903.8
1892
1894.1
1899.2
1897.8
1902.1
1903
1886.2
1885
1935.3
2028.1
2133
2232.7
2394.6
2673
2856
2750
2469.9
2175.6
1951
1786.4
1624
1530.1
1568.2
1665.8
1772.5
1868
1907.5
1915
1922.1
1931.2
1946
1950.8
1950.7
1959.6
1968.1
1970
1970.9
1975.1
1986.6
1997.3
2001
2001.2
1997
2000.2
2009.4
2016
2022
2020.8
2024.7
2037.4
2046
2052.9
2056.6
2061
2072.5
2084
2091.2
2093
2094.9
2110.3
2128
2136.2
2154.1
2177.9
2194.1
2215
2241.7
2265.3
2286.5
2310.6
2337
2363.6
2387
2401.8
2424.1
2449
2458.8
2471.8
2480.2
2477
2465
2435.8
2409
2379.7
2343.1
2304
2255.3
2218.1
2185.4
2145.2
2110
2081
2061.8
2041.5
2016.3
2000
1989
1978.1
1968.4
1963.5
1960
1951.5
1945.3
1945.8
1947.8
1949
1944.4
1939.4
1950.3
1958.9
1956
1958.7
1959.7
1965.1
1970.4
1965
1969.7
1977.1
1973.3
1970.3
1973
1976.3
1974.2
1967.7
1964
1964
1964.2
1965
1964.7
1964.5
1964
1960.9
1960.9
1962.9
1963.8
1968
1970
1967.4
1970.8
1974.5
1971
1970.1
1969.6
1964.4
1963.7
1963
1960.7
1965
1962.2
1960.5
1971
1969
1960.3
1962.3
1967.3
1966
1960.9
1961.6
1967.5
1976.6
1977
1968
1971.3
1973.4
1967.4
1970
1973.7
1977.8
1983.6
1984
1981
1978.8
1975.6
1969
1972.7
1982
1976.2
1967.5
1968.8
1975.1
1980
1976.8
1972.3
1975.9
1984.6
1994
2008.3
2031
2052.8
2061.4
2066
2077.8
2094.1
2120.5
2142.9
2141
2131.3
2122.9
2107.8
2093.7
2088
2077.3
2054.6
2033.3
2017.8
2007
1998.5
1981.7
1963.8
1954.4
1950
1952
1960.7
1966.7
1962.5
1957
1955.9
1970.8
2047.5
2159.3
2255
2384.7
2612.8
2874.2
2914.9
2675
2379.9
2136.9
1962.5
1803.2
1658
1635.4
1696.5
1797
1900.6
1949
1971.6
1978.9
1982.9
1991.6
1993
2002.8
2014.1
2016.7
2016.4
2019
2029
2033.7
2027.6
2029
2037
2036.2
2033.9
2034.2
2036.4
2044
2053.8
2063.1
2068
2074.3
2079
2075.3
2080.3
2090.7
2096.6
2101
2105.1
2115.6
2124.4
2133.4
2152
2171.2
2192.4
2214.7
2236.9
2259
2281.8
2312.4
2337.3
2368.9
2408
2428.6
2451.1
2474.1
2492.1
2510
2514.3
2521.9
2528.5
2519.8
2499
2472.3
2454.9
2423
2369.9
2328
2291
2245.9
2203.1
2163.2
2129
2105.7
2082.5
2061.1
2046.7
2031
2017
2005.5
1989.8
1979.9
1980
1981.2
1979.9
1970.8
1968.1
1972
1965.1
1961.9
1961.5
1962.2
1965
1960.7
1963.8
1965.4
1962.6
1971
1972.4
1964.5
1966.9
1975.3
1980
1977.6
1965.9
1957.8
1963.3
1965
1959
1959.5
1958.8
1954.6
1954
1954.8
1956.9
1950.6
1943.6
1943
1936.2
1931.8
1930.4
1932.6
1936
1930.6
1927.2
1919
1915
1921
1916.6
1916.4
1917.7
1913.8
1913
1906.9
1904.3
1906.2
1909.3
1907
1896.6
1896.6
1891.8
1882.4
1888
1889
1883.9
1884.5
1878.1
1874
1878.2
1869.6
1865.2
1871.3
1866
1859.4
1864.4
1885.8
1912
1924
1932.4
1944.4
1950.3
1957
1973
1994
2012.2
2010.1
1996.5
1989
1984.2
1980.7
1965.7
1946.6
1936
1922.5
1913.1
1903.2
1889.3
1880
1863.5
1844.7
1839
1846.5
1850
1842.1
1836.4
1834.9
1841
1859
1910.9
2022
2137.3
2235.6
2442
2725.2
2817.2
2633.1
2326.9
2050
1866.3
1715.5
1558.4
1498.9
1567
1664
1758.5
1841.3
1880.8
1889
1894
1909.5
1919.4
1925.7
1936
1939.5
1946.8
1956.6
1961.7
1967
1969.2
1970.6
1974
1980.3
1986
1984.7
1985.6
1991.5
2000.9
2008
2011.5
2019.1
2018.5
2021.8
2033
2031.2
2039.9
2057.5
2058.3
2058
2070.6
2090.2
2108.2
2121.3
2136
2151.2
2163
2183.7
2207.6
2230
2261.9
2292.4
2322.1
2349.1
2370
2394.6
2415.1
2438.2
2454.1
2450
2445.4
2438.6
2426.3
2404.2
2370
2339.7
2304.2
2254.3
2212
2177
2141.9
2110.8
2065.8
2033.4
2023
1997.6
1980.5
1968.1
1948.1
1943
1938.6
1930.9
1927.1
1918.7
1910
1909
1909.6
1909.1
1912.3
1912
1905.5
1905.2
1910.1
1907.5
1913
1924.7
1917
1916.9
1925.5
1925
1932.7
1933.7
1931.5
1941
1944
1939
1932.3
1927.7
1932
1933
1925.2
1926.3
1928.7
1930.1
1929
1924
1935.5
1939.5
1938.6
1945
1938.2
1942
1943.4
1939
1952
1956.3
1953
1951.8
1957.9
1963
1951
1946.5
1946.6
1949.3
1959
1955.3
1951.3
1952.4
1951
1948
1945.3
1952.4
1951.9
1947.3
1952
1952.6
1952.9
1949.2
1945.8
1955
1959.2
1954.5
1949.9
1948.8
1956
1961.8
1956.4
1952.6
1961.2
1971
1983.3
2005.4
2018.8
2027.5
2047
2062.8
2072.2
2081.6
2091.4
2112
2133.5
2130.4
2114.6
2107.4
2104
2094.1
2070.3
2043.9
2030.2
2025
2012.4
1992.2
1982.9
1973.7
1956
1947
1943.7
1945.8
1953.9
1953
1948.3
1949.3
1951.4
1990
2083
2192.1
2293.7
2429
2701.4
2920
2812.8
2540.4
2265.2
2041.8
1893
1726.7
1613.9
1638.9
1746.7
1859
1926.3
1967.9
1987.5
1998.1
2005
1995.7
2004.7
2019.1
2018.1
2021
2022.5
2023.6
2025.8
2025.4
2028
2031.6
2033.5
2031.4
2027.4
2024
2024.7
2033
2040.1
2049.3
2060
2062
2064.6
2066.1
2069
2081
2090.8
2103.7
2120.8
2127.1
2137
2158
2170
2182.2
2200.7
2219
2248
2275
2290.3
2317.8
2352
2376.6
2405.2
2432.9
2461
2491
2507.2
2519.9
2526.7
2526.6
2530
2518.3
2493
2470.4
2434.2
2389
2353.7
2309.9
2262.1
2225.5
2190
2154.1
2119.6
2092.4
2070.8
2051
2030.8
2002.9
1986.1
1982.2
1976
1971.7
1963.4
1953.6
1946.2
1936
1931.5
1929.2
1921.1
1926.8
1943
1949.4
1953.4
1950.5
1949.4
1955
1948.9
1947.8
1951.7
1956.4
1965
1959.3
1951
1952.7
1954.6
1953
1946.5
1939.3
1935.7
1932.4
1928
1924.3
1921
1920
1920.2
1916
1915.1
1920.7
1916.2
1909.8
1912
1915.1
1919.8
1913.6
1913.3
1921
1908.6
1904.4
1910.3
1909.2
1911
1906.4
1901.9
1907.7
1908.4
1900
1896.1
1898.5
1898.5
1896
1898
1900.2
1894.8
1891.5
1894.3
1897
1902.1
1903.7
1896.5
1900.9
1905
1899.8
1913
1916.3
1910.6
1920
1924.1
1942.6
1968.2
1980.3
1998
2012.7
2017.7
2026.3
2040.5
2062
2080.9
2080.3
2077.1
2069.2
2058
2055.6
2033
2011.4
2008.9
2001
1988
1967.3
1955.5
1951
1931
1911.9
1904.3
1904.7
1909.3
1911
1908.2
1906.4
1911.6
1929.8
1997
2113
2210
2329.1
2571.1
2827
2863.7
2637.8
2314.8
2052.8
1883
1728
1571.7
1533.9
1622.9
1731
1824.6
1888.7
1918.8
1931.9
1935
1938.7
1947.7
1962.4
1965.9
1967
1980.8
1979.7
1979.4
1990.8
1993
2000.1
2011.8
2017.3
2023
2029
2031.2
2033.3
2042.4
2052.5
2060
2068.4
2075.6
2085
2092.4
2095
2101.4
2105.9
2106.6
2117.1
2137
2158.7
2178.5
2188.8
2198.4
2215
2235.4
2265.3
2291.3
2313.5
2344
2369.1
2388.6
2410.1
2437.5
2461
2465.4
2469.1
2486.3
2495.8
2490
2479.6
2463.1
2438.5
2403.7
2368
2331.3
2279.6
2243
2214.1
2169
2135.8
2106.6
2072.2
2049.8
2037
2022.3
1999.6
1982
1979.2
1975
1965.7
1962.7
1961.3
1966.8
1976
1975
1981.7
1992.6
1995.6
1994
1992.6
2004.1
2012.5
2014.3
2022
2026.5
2031.3
2036.7
2046.8
2059
2056.4
2048.9
2044
2047.2
2053
2046.8
2046.3
2050.1
2044.3
2035
2025.9
2022.7
2023.4
2023.2
2021
2015.4
2013.7
2013.6
2008.8
2002
2000.5
2003.2
1996.4
1991.3
1994
1990.9
1991.5
1990
1983.3
1987
1988.9
1980.6
1976.2
1981.2
1989
1993.8
1995.1
1994.7
1991
1985
1987.3
1994.9
1992.2
1985
1981
1973.4
1966.5
1962.4
1964.7
1968
1959.2
1949.7
1946.3
1954.4
1961
1946.4
1936.8
1940.3
1946.5
1961
1981.1
2001
2012.3
2018.1
2027
2035.4
2044.4
2057
2073.6
2082
2070.7
2055.5
2044
2025.6
2015
2010.3
1990.3
1978.2
1965
1938
1925.9
1908.4
1884
1874.9
1869
1862.7
1861.9
1869.2
1874.7
1871
1869
1888.4
1967.7
2092.4
2211
2339.8
2563.4
2853.4
2913.2
2667
2370.9
2116.4
1930.9
1787.3
1653
1634.6
1714.9
1830
1951.4
2020
2047
2072.9
2092.7
2100.8
2109
2118
2127.6
2134.8
2134.1
2138
2150.7
2156.7
2154.7
2154.7
2158
2161.2
2158.2
2149.8
2149.4
2158
2161.7
2158
2155.7
2164.2
2173
2171.5
2172.2
2172.5
2174.4
2180
2180.5
2186.1
2192
2197.1
2207
2214.5
2227.7
2240.1
2251.9
2271
2286.5
2302.5
2321.6
2346.1
2373
2388.1
2404.2
2430.3
2450
2461
2465.7
2463.4
2467.7
2459.9
2439
2419.6
2377.7
2339.2
2301.1
2243
2203.9
2168.2
2122.2
2084.2
2048
2016.9
1990.8
1966.8
1955.6
1948
1926.4
1908.5
1908.1
1905.6
1896
1893
1893.8
1889.3
1885.9
1883
1882.1
1888.3
1884.1
1878.4
1886
1893.2
1905.6
1918.1
1921
1929
1938.6
1938.4
1937.2
1940.4
1944
1948.5
1951.3
1953.4
1955.8
1954
1951.3
1954.6
1961.1
1960.1
1952
1949.8
1950.9
1944.2
1943.6
1950
1950.3
1951.5
1946.4
1944.8
1958
1959.5
1951.2
1949.3
1957.2
1967
1965.2
1957.7
1951.5
1953.8
1956
1948.3
1950.4
1956.5
1959
1956
1942.4
1941.5
1943.9
1940
1946
1951.5
1947.7
1939.1
1944.7
1958
1954.9
1951.2
1951.4
1959.4
1966
1957.8
1963.9
1973.7
1985
2013
2033.2
2053.5
2076.2
2086
2095
2109.3
2126.8
2147.9
2165.7
2167
2153.9
2140.7
2126.4
2110.6
2098
2087.8
2075.4
2053.4
2041.3
2040
2025.7
2008.8
1990.2
1980.4
1979
1967.9
1970.5
1970.9
1966.5
1972
1968
1999.4
2099.1
2207.1
2305
2470.9
2725.7
2911.6
2835.8
2535
2214.3
1961.5
1743.9
1568.2
1512
1594.1
1718.2
1821.3
1895
1929
1937.2
1941.6
1951.6
1965.8
1977
1986.7
1997
2001.5
2000.1
2002
2010.7
2020.3
2024.2
2026.5
2037
2048.7
2053.2
2060
2066.6
2076
2095.5
2101.9
2097.8
2109.2
2118
2117.5
2128.6
2136.2
2143.6
2164
2170.8
2172.3
2189
2198.3
2210
2236
2251.9
2276.6
2302.5
2312
2338.7
2365.1
2378.9
2406.8
2445
2475.1
2490.9
2506.4
2527.4
2547
2566.8
2576.9
2564.4
2551
2543
2520.9
2496.4
2472.8
2434.2
2392
2358.9
2327.4
2293.8
2259.7
2231
2202.9
2166.6
2142
2124.9
2098
2077.4
2058.9
2038.3
2027
2014
1993.4
1983.3
1982.1
1970
1953
1946.1
1942.1
1936.7
1936.6
1933
1928.7
1941.7
1951.2
1941.3
1937
1944.1
1945.1
1939.3
1940.9
1948
1944.9
1935.5
1936.1
1942.6
1940
1934.7
1933.5
1924.5
1918.2
1923
1925.1
1926.8
1922.8
1916.9
1924
1937.8
1948.7
1944.2
1944.5
1959
1964.8
1966.7
1961.8
1965.5
1980
1975.4
1973.7
1978.7
1975.8
1979
1977.8
1967.5
1966.2
1971.2
1968
1962
1960.6
1955.9
1947.2
1940
1937
1940.3
1942.4
1941.2
1944
1947.9
1948.4
1952.7
1974.2
2000
2015
2028.7
2038.1
2050.1
2060
2057.4
2079.9
2115.5
2114.8
2096
2087.2
2075.9
2052.3
2027.8
2010
2000.1
1990.9
1967.7
1943.8
1936
1929.3
1914.9
1899.3
1889.3
1886
1887.6
1892.4
1886.2
1878.8
1888
1928
2021.6
2136.5
2250.5
2386
2618.1
2890.7
2879.2
2598.3
2320
2076.8
1876.5
1694.8
1597
1657
1761.8
1877.5
1964.7
1991.8
2020
2033.6
2019.1
2015.1
2013.5
2001
2000.6
2006.3
2009.5
2020.3
2023
2019.1
2029.2
2038.1
2043.2
2053
2057.3
2062.9
2064
2060.3
2072
2087.6
2088.3
2086.8
2107.7
2134
2133.1
2125.9
2138.9
2159.9
2168
2168
2175.9
2185.3
2198.1
2212
2214.9
2226.5
2248.5
2261.9
2277
2296.2
2310.9
2334
2361.3
2381
2400
2412.3
2421.1
2439
2450
2451.2
2456
2449.1
2431.7
2406
2360
2320.6
2292.6
2256.2
2214
2170.2
2136
2112.4
2084.7
2059
2042.5
2023.5
2005.6
1990.5
1982
1980.6
1964.9
1951.9
1954.1
1954
1952.9
1948.7
1948.7
1960.6
1966
1960
1956.7
1960.2
1963.1
1970
1977.9
1978.5
1985.8
1984.8
1967
1962.4
1966.3
1967.7
1966.6
1963
1964.4
1959.5
1948.1
1952
1962
1960
1952.3
1942.6
1945.9
1954
1946
1944.8
1945.6
1948.6
1961
1962.5
1965.1
1966.8
1965.8
1969
1969.8
1981
1985.3
1974.2
1981
1993.5
1986.2
1979.4
1983.8
1987
1986.4
1980.3
1976.8
1984.7
1986
1976.8
1974.6
1975.7
1983
1987
1973.6
1974.4
1985.7
1985.7
1985
1995.6
2021.2
2036.4
2048.7
2067
2071.5
2078.2
2085
2103.9
2140
2148.1
2135.4
2126.2
2123.1
2116
2090.5
2066.6
2052.6
2040.4
2028
2008.5
1992.2
1985.9
1968.3
1948
1945
1943
1944.4
1946.9
1942
1946.3
1949.3
1950.8
1992.2
2094
2202.6
2266.3
2454.4
2655.6
2861
2770.2
2307.5
2440.5
1699.1
