2053.9
2045
2028.5
2013.1
2002.7
1998.4
2000
1990.8
1985.1
1984.1
1980.3
1975
1969.7
1976.5
1976.4
1963.4
1960
1962.7
1965.3
1966.2
1968.5
1975
1978.9
1979.9
1981.4
1993.7
2010
2011.3
2011.5
2021.2
2022.2
2014
2009.7
2010.1
2014.5
2014.4
2008
2005.2
1999.5
1987
1969
1966
1988.5
1996.3
1985.7
1985.5
1991
1988.3
1981.6
1984.9
1988.3
1988
1996
2004
2017
2037
2049
2057
2066.8
2078.3
2095
2114
2129
2133.4
2124.9
2116.9
2108
2086.8
2059.7
2024.1
1994.6
1996
1994.9
1964
1940.8
1937.4
1925
1909.9
1911.8
1918.9
1919.6
1910
1901.1
1931.7
2021.3
2127.6
2201
2317.8
2593.8
2875.5
2857.6
2595
2340.4
2112.8
1905.6
1756.8
1681
1710.8
1797.7
1889.4
1961.2
1989
1990.2
1978.6
1970.4
1976.5
1985
1991.1
1994.2
1990.3
1983.1
1986
2000
2009.5
2008.1
2000.8
2005
2018.3
2015.9
2016.6
2029.4
2036
2035.5
2032.2
2047
2063.6
2067
2083.9
2101.3
2113.8
2131.4
2141
2148.4
2158.7
2165.7
2187.8
2217
2227.9
2243
2265.6
2280.6
2292
2294.4
2297.9
2317.4
2338
2340
2334
2330.6
2316
2302.6
2301
2270.5
2213.1
2187.9
2181.3
2159
2135.3
2109
2085.9
2069.5
2043
2021.9
2012.5
1991.4
1969.6
1971
1979.3
1973.6
1961.3
1958.6
1958
1952.8
1953.5
1949.7
1942.7
1949
1949
1939.6
1943.2
1937.7
1922
1931.2
1940.6
1928.6
1917.7
1918
1930
1947.9
1956.4
1949.9
1941
1936.6
1930.4
1925.4
1925.3
1917
1902.1
1903.6
1912.2
1902.4
1889
1891
1892.8
1888.4
1894.6
1893
1881.6
1893.6
1897.1
1885.4
1886
1892.2
1915.2
1934.7
1949.1
1968
1972.8
1984.4
1991.2
1998.2
2039
2065.9
2057.2
2058.6
2062.1
2039
2009.3
1990
1980.1
1969.9
1949
1931.4
1927.2
1919.2
1895.1
1869
1867.2
1880
1867.2
1863
1884
1886.2
1889
1911.2
1973.2
2069
2133.1
2246.3
2531.5
2814.9
2826
2587.5
2311.9
2102.6
1892.7
1691
1621.9
1684.1
1790.7
1867.2
1900
1922.9
1927.8
1928.1
1933.9
1935
1945.7
1949
1938.7
1936.9
1955
1967.1
1949.1
1948.2
1960.9
1957
1964.2
1973.5
1980.3
1989.9
1988
1991.2
2003.9
2007.8
2012.5
2023
2024.5
2029.1
2052.1
2074.8
2086
2094
2103.9
2116
2125
2134
2160.2
2192.9
2207.7
2228.1
2252
2254.5
2266.2
2288.4
2304.2
2321
2326.1
2322.7
2319.9
2303.6
2279
2265.5
2252.9
2226.4
2200.7
2180
2149.6
2111.6
2083.3
2076.8
2065
2032.8
2017.2
2013.1
2003
2000
1994.5
1979
1966.2
1974.3
1990
1989.4
1988
1989.1
1986.6
1983
1981.4
1986
1976.7
1962.9
1977
2000.8
2006.9
1997.6
1992.4
1999
2000.9
1993.4
1991.4
1995.1
1994
1992.8
1994.8
1992.2
1992.2
1999
2004.3
2008.4
2007.5
2003
2012
2019.7
2011.5
2014.7
2013.8
2000
2016.7
2039
2033
2034.6
2041
2032.9
2039.3
2056.6
2077.7
2103
2110.1
2112.9
2115.4
2118.6
2141
2167
2176.6
2169.1
2160.1
2141
2112.4
2103.7
2089.1
2072.5
2075
2051.8
2013.9
2002.4
1997.9
1978
1955.4
1947.1
1947.3
1952.9
1953
1942.3
1934.5
1924.7
1965.2
2056
2120.9
2205.7
2396
2706
2872
2696.5
2449.3
2238.6
2009.7
1814
1675.4
1677
1775.3
1869.8
1945
1969.9
1969.5
1966.6
1967.9
1983
1985.6
1976.3
1977.3
1985.5
1990
1995.1
2004.3
2004.1
1995.2
1993
2003.3
2018.6
2021.3
2016.7
2021
2029
2040.4
2054.6
2058
2057
2065.3
2077.4
2094.4
2113.3
2122
2129.2
2142.5
2154.2
2163.8
2177
2194.2
2217.1
2243.6
2257.3
2267
2284.7
2295.2
2310.2
2330.4
2339
2346.7
2348.3
2341.4
2337.2
2326
2301.7
2279.6
2263.8
2237.4
2207
2181.1
2146
2116.7
2103
2082
2048.5
2022.6
2023.6
2029.8
2011
1990.3
1987.3
1982.4
1976.7
1978
1973.6
1972.8
1982.4
1987.4
1979
1971.7
1976.7
1974.5
1975.4
1988
1987.9
1982.7
1979.5
1980.4
1983
1974.2
1975.8
1991.9
1993
1989
1994.9
1989.7
1975.7
1972.8
1977
1977.4
1972.5
1971
1969.5
1967
1969.4
1965.8
1962.5
1966.4
1967
1963.6
1956.7
1947.8
1946.2
1959
1980.4
1996.2
2006.1
2020.1
2030
2040.4
2060.7
2068.7
2091.5
2127
2116.8
2101.7
2111.1
2100
2077
2059.7
2037
2022.6
2008.3
1985
1978.7
1968.3
1936
1917.8
1911
1901.2
1905.3
1900.7
1888.9
1894
1897.6
1919.7
1990.8
2084.2
2152
2295.5
2608
2817.1
2723.8
2489
2264.4
2069.4
1859.9
1688.5
1656
1726.4
1823.2
1900.1
1941.4
1951
1942.4
1942.8
1948.4
1957.5
1971
1967.3
1959.3
1969.3
1982.8
1984
1984.3
1996.7
2004.3
1989.9
1988
2005.5
1996.8
1992.4
2020.2
2039
2039.9
2038.6
2045.8
2054.6
2054
2059
2073.1
2079.9
2082.8
2098
2115.4
2127.3
2151.8
2172.4
2178
2195.8
2219.6
2234.6
2245.8
2254
2266.2
2280.9
2287.9
2300.7
2316
2309.5
2293.3
2281.8
2273
2256
2220.9
2186
2159.5
2138
2112
2082.1
2069.8
2052.2
2017.5
1993
1986.6
1989.1
1975.7
1958.4
1953
1945.5
1943.1
1933.2
1924.2
1937
1946.3
1942.5
1932.2
1938.3
1954
1945.7
1940.1
1948.2
1948.8
1948
1951.8
1959.5
1963
1947.3
1940
1962
1975.2
1973.6
1963.9
1952
1958.9
1964.7
1962.7
1953.1
1944
1947.1
1939.7
1943.1
1955.9
1948
1944.5
1945
1938
1945.6
1950
1940.3
1946.6
1952.1
1971.9
1993
1987.7
2020.6
2047.4
2047.8
2060
2056.3
2087.4
2139.4
2144.1
2135
2127.9
2112.5
2104.9
2098.3
2075
2056.8
2053.7
2042.8
2023.8
2008
1979.3
1941.8
1931.5
1930.4
1919
1922.6
1926.7
1916
1911.2
1916
1946.8
2018.2
2086.5
2156.2
2371
2682.2
2783.3
2625.4
2383.4
2186
2025.3
1815.2
1685.3
1697.5
1763
1869.9
1940.2
1962.3
1977
1975
1984
1995.9
1994.3
1991.9
1990
1991.4
1996
1999.9
2003.4
2010
2018
2020.5
2020.6
2031.1
2045
2044.7
2041.8
2049.8
2056.5
2067
2091.3
2109.6
2116.9
2123
2136
2158.4
2171.4
2174.3
2183.4
2199
2214.3
2222.4
2225.4
2234.6
2256
2281.9
2297.7
2302.9
2311.1
2325
2331.5
2328.9
2332.5
2346.8
2349
2336.5
2329.9
2313.1
2285.4
2256
2221.9
2200.8
2174.7
2143.5
2120
2091.6
2078.8
2069
2047
2033
2011.7
1987
1989.5
1994.2
1978
1965.6
1962.2
1963.4
1966.6
1962
1956.5
1959.5
1968.6
1969.1
1961
1961.1
1966.9
1973.1
1977.3
1984
1991.6
1986.3
1982.4
1981.8
1982
1997.5
2003.8
1992
1993.3
1997
1989.7
1993.9
1997
1994.3
1998
1997.7
1996.1
1988.2
1988.8
2005
2005.3
2000.5
2004.1
2009.4
2028
2049.6
2055
2058.5
2063.1
2069
2089.1
2102.3
2104.3
2130.9
2148
2132.5
2132.1
2119.4
2095.8
2095
2076.2
2048.6
2033.5
2024.8
2016
1988
1955.4
1929.5
1912.7
1919
1932.3
1926.9
1915.3
1919.5
1922
1920
1957.8
2034.2
2119
2210
2423.3
2748.3
2820.4
2619.9
2409
2204.1
2026.4
1840
1701.5
1725
1807.8
1895.2
1951.8
1968.3
1995
2000.1
1984.2
1983.4
1986.6
1988
1990.1
1986.1
1996.9
2020.3
2025
2023.4
2028.5
2029.8
2026.5
2027
2036.1
2046.9
2046
2042.3
2049
2058.2
2066
2075
2090.4
2098
2098.9
2118.2
2127.1
2126.6
2143
2163
2190.3
2204.7
2207.2
2229
2249.1
2262.8
2283
2290.1
2289
2308.2
2332.2
2338.1
2342
2349
2347.1
2336.4
2315.2
2291.9
2271
2247.6
2226.5
2196.5
2169.1
2154
2125.1
2093.4
2075.7
2067.5
2056
2036.9
2026.4
2015.5
2004.7
2007
2011.5
2013.1
2007.2
2004.9
2008
2001.8
2000.7
2004
2001.9
2005
2007.7
2007.2
2014.4
2018.9
2025
2031.5
2016.2
2017.7
2039.6
2039
2032.1
2029.2
2027.8
2024.6
2013
2010.3
2021.5
2030.2
2029.3
2022
2018.4
2024.9
2029.5
2032.3
2034
2029.1
2028.1
2023.3
2019
2036
2051.5
2052.3
2065.1
2088.5
2095
2085.8
2079.2
2091.8
2130
2158
2148.9
2136.4
2134.9
2119
2103
2092.5
2059.2
2033.2
2035.9
2033
2018.7
1997.3
1965
1940.1
1941
1947.9
1938.5
1930
1930.6
1929
1921.2
1926.2
1989.5
2084.9
2145
2282.8
2590
2802.6
2718.3
2488
2288.2
2123
1908.7
1727.3
1685
1733.5
1834.5
1916.9
1953.9
1977
1969.6
1963.5
1970
1976.2
1983
1979.4
1986.3
1997.4
1997.1
1999
2002.8
2002
1993.3
1992.7
2000
2000
2004.5
2007.3
2010.9
2033
2046.9
2040.5
2041.6
2051.5
2056
2061.8
2073.8
2091.8
2113.3
2126
2134.6
2153.1
2172.8
2185
2198
2210.7
2221.1
2235.6
2247.7
2260
2283.4
2301.1
2305.6
2312.3
2314
2297.2
2274.8
2262.5
2259.4
2244
2212.7
2185.6
2154.5
2130.2
2120
2097.3
2069.8
2038.4
2011.1
1997
1971
1947.4
1946.8
1948.8
1942
1939.2
1944.9
1940.4
1923.1
1918
1928.1
1923.1
1902
1905.7
1929
1935.8
1933.6
1931.2
1934.7
1929
1913.5
1929.5
1941.3
1940.6
1950
1944
1944.2
1944.4
1939
1939
1930.1
1935.7
1942
1940
1949
1937.9
1916.3
1926
1944.1
1940
1931.1
1929.6
1929.3
1939.3
1960
1977
1990.9
2006.8
2013.9
2013
2017.2
2040.3
2080
2078.7
2057
2081.8
2094.9
2073.3
2056.3
2031
2006.6
1997
1983.6
1974.3
1968
1937.1
1904.8
1897.9
1899.2
1898
1895.8
1893
1894.8
1896.7
1886
1912.9
2018.5
2110.6
2171.9
2380
2718.9
2868.4
2702.3
2440
2238
2045.4
1834.5
1688.6
1675.3
1760
1855.2
1910.3
1930.2
1940.3
1945
1947.3
1963.4
1974.1
1974.5
1974
1966.6
1967.8
1974.8
1970.8
1970
1974.3
1974
1979.2
1978.1
1980
1984.4
1962.4
1978.8
2021.9
2025
2034.9
2052.5
2058.7
2064.1
2062
2064
2075.2
2088.9
2100.6
2104
2106.4
2125.8
2154.1
2162.1
2164
2191.2
2221.2
2223.8
2215.4
2231
2262.3
2272.6
2271.6
2268.9
2261
2255.2
2235.7
2205.1
2181.5
2148
2108
2081.7
2052.7
2034
2029
2005.5
1980.1
1952.5
1921.3
1919
1927.1
1918.4
1906.9
1898.3
1895
1897.5
1887.9
1880.6
1887.3
1888
1877.5
1860.4
1856.3
1873.1
1878
1863.2
1860.9
1875.1
1886.1
1882
1867.6
1868.5
1883
1883.1
1882
1886.1
1874.2
1873.8
1890.7
1887
1885.1
1897.9
1888.9
1886.8
1897
1884.6
1886
1889.1
1881.4
1884
1886.4
1907.3
1927.6
1935
1953
1964.9
1971.7
1975.5
1969.6
1990
2032.2
2041
2033.1
2030.2
2020
2006.6
1981.1
1958.9
1942.5
1921
1915.9
1914.5
1897.6
1868.6
1845
1838
1834.7
1838.8
1838.7
1831
1841.6
1850.3
1848.2
1881.4
1966
2046.9
2131.6
2356.4
2680
2782
2582.9
2349.9
2160.1
1936.3
1728
1615.9
1631.8
1723.1
1824.3
1889
1894.4
1890.2
1893.7
1903
1904
1884.3
1890.4
1906.3
1912.2
1916
1916.7
1937.5
1936.7
1930.6
1955
1956
1950.5
1953.2
1961.1
1982
1985.1
1980.7
1987.3
1998.7
2013
2016.4
2015.7
2037.8
2061.5
2072
2086.9
2098
2115.6
2136.1
2144
2159.8
2180.3
2200.8
2225.4
2247
2262.8
2270.8
2284.5
2306.5
2319
2317.9
2311.4
2310.3
2308.9
2293
2265.5
2238.8
2214.2
2179.5
2144
2125.7
2107.6
2077.6
2056
2036
2010.6
1998.3
1982.4
1967
1963
1954.3
1956.5
1957.3
1949.2
1954
1950.1
1938
1947.8
1961.1
1958
1955
1959.3
1969.7
1972.1
1958
1950
1953.9
1958.3
1963.6
1963
1962.2
1973.5
1970.4
1957.1
1957
1962.7
1973.7
1968.2
1956.1
1962
1963.2
1961.3
1959.5
1956
1959
1962.4
1966.3
1965.9
1963.1
1968
1987.3
2022.2
2046.4
2056.6
2063
2066
2079.7
2092.1
2108.6
2144
2160
2147.6
2136.8
2127.4
2113
2098.7
2076.9
2050.4
2036.3
2033
2021
1995.7
1977.6
1965.9
1952
1950
1958.4
1964.6
1972.3
1975
1961
1952.7
1998.8
2091.6
2173
2244.7
2433.8
2759.9
2874.2
2678
2457.9
2246.2
2037.8
1856.2
1710
1710.5
1799.9
1882.2
1939.6
1955
1957.5
1957.3
1956.8
1971.3
1973
1957.6
1968.1
1977.7
1970
1974
1985.7
1998.4
1992.8
1991.7
2007
2011.8
2027.1
2029.2
2021.7
2037
2041.4
2039.5
2041.8
2043.3
2052
2056
2061
2079.4
2096
2098
2105.3
2125.7
2131.5
2137.8
2160
2177.1
2195.9
2211.4
2224.4
2244
2259.4
2274
2276.1
2280.5
2299
2297
2283.2
2275.8
2269.7
2260
2237.5
2209
2183.5
2157.6
2132
2111.6
2094.3
2071.7
2044.6
2024
2007.5
1984.9
1964.4
1945.7
1938
1950.6
1953.6
1943.7
1933.9
1929
1933
1931.4
1934
1941.3
1937
1932
1930.8
1938.5
1952.5
1959
1958.5
1952.5
1950.3
1959.8
1978
1991
1988.6
1986.8
1979.1
1968
1978.2
1992.4
2001.1
2000.3
1982
1971.9
1975.5
1974.7
1970.1
1963
1954.3
1953.7
1955.8
1960.5
1976
1992.8
2006
2017.4
2024.7
2029
2044.9
2079
2098.9
2088.3
2077
2072
2059.1
2053.6
2055.9
2037
2006.9
1989.7
1972.5
1953.2
1940
1915.5
1886.9
1885.5
1892.8
1890
1889
1883.2
1881.2
1879.5
1895
1969.1
2061.4
2145.1
2259.7
2553
2876.4
2821.1
2562.1
2328.1
2078
1891
1721.1
1631.7
1695.4
1780
1860.2
1926.4
1942.6
1938.9
1933
1922.7
1929.9
1946.5
1953.8
1959
1957.1
1952.5
1958.5
1968.9
1977
1977.4
1965.7
1962.4
1982.4
1996
1991.1
1993.9
2007.2
2023.6
2035
2033.2
2040.5
2059.3
2070
2074
2080.5
2093.8
2107.2
2119.8
2137
2160
2181
2185.7
2195.6
2214
2218.2
2226.9
2238.4
2259.7
2292
2304
2310.1
2311.2
2309
2298
2264.8
2250.6
2239.6
2209.7
2187
2162.6
2132.9
2103.4
2080.5
2063
2037.7
2017
2004.6
1982.4
1953
1935.6
1937.5
1947.4
1942.2
1929
1925.9
1921.9
1920.2
1919.3
1911
1905.4
1903.3
1911.4
1915.9
1909
1910.6
1910.8
1912.6
1924
1924
1923.4
1930.1
1917.3
1913
1938
1942.3
1926.3
1920
1910.1
1899
1896
1885.3
1876.9
1883.9
1891
1890.4
1886.4
1886.8
1883.7
1876
1873.1
1870.9
1883.1
1910.1
1929
1943
1952.5
1951
1961
1981
1987
2002.4
2040
2064.8
2061
2050.3
2041
2018.2
1999.7
1994
1978.9
1965.2
1955.6
1935.7
1915
1897.6
1881.5
1873
1873
1863
1850.1
1856.3
1857.2
1848.9
1851
1878.7
1957.1
2043.4
2123
2348
2680
2796.2
2638.7
2392.3
2165
1959
1744.6
1627.7
1647
1725
1832.9
1900.1
1914.6
1923.8
1919
1911.7
1922.1
1927.1
1932.7
1936
1926.3
1936.1
1941.2
1931.2
1942
1949.5
1954.1
1973.8
1967.2
1950
1971.6
1994.5
2000.2
2005.6
2011
2025.7
2032.9
2028.3
2043.3
2065
2070
2080
2094.7
2106.9
2127
2150.5
2169.5
2173.8
2186.8
2211
2221.9
2240
2253.4
2261.7
2283
2298.8
2312.9
2316.6
2313.2
2314
2300.7
2286
2270.6
2239.8
2212
2192
2167.1
2140.2
2106.1
2079
2072.8
2054
2028.5
2014.1
2002
1985.6
1960.6
1960.2
1972.9
1970
1971.4
1964.2
1954.4
1966.2
1969
1955.1
1957
1967.4
1966.3
1963
1961.6
1963.6
1973.5
1976.8
1971
1973.3
1982.4
1987.6
1982.4
1979
1986.4
1984.3
1977.7
1977
1970
1964.1
1968.4
1972.1
1971.3
1976
1979.4
1973.6
1975.9
1978.3
1962
1953.5
1964.2
1965.7
1962.4
1969
1980.7
2004.3
2029.9
2047
2055
2051.7
2055.6
2074.6
2110.1
2133
2119.3
2113.8
2116.6
2097.1
2075
2060.2
2043
2023.6
2009.3
1997
1986.8
1979.9
1956.2
1924.7
1917
1922.9
1924.3
1920.7
1918.3
1922
1926.9
1941.1
2001.5
2105.9
2175
2299.2
2614.3
2846.9
2765.1
2533
2310.4
2113.7
1902.5
1733.4
1704
1773.5
1865.6
1940.8
1982.8
2000
2001.5
1995.6
1996.4
2004.7
2016
2020.1
2011.1
2013.6
2016.4
2008
2017.3
2027.7
2022.5
2019.2
2022
2028.5
2034.5
2041.2
2058.2
2070
2066.5
2070.3
2076.2
2082.7
2093
2095
2106.9
2124.5
2130.5
2144
2163.8
2173.5
2184.9
2203.9
2218
2237.2
2265.3
2280.1
2291.3
2314
2326.4
2331.7
2346.8
2348.8
2346
2357.3
2350
2328.6
2310.3
2286
2261.6
2233.9
2204.9
2174.9
2137
2107.3
2089.2
2070.6
2057.6
2042
2015.3
2003.6
2001.1
1989.2
1966
1953.3
1973.4
1974.2
1960
1968
1963.4
1956.7
1961.7
1961.9
1958
1955
1956.1
1944.2
1937.3
1954
1961.3
1956.4
1955.9
1964.1
1971
1962.4
1954.1
1955.8
1960.3
1960
1960
1963.3
1949
1946.4
1970
1975.1
1968.8
1961.5
1952.1
1960
1967.7
1957.7
1952.2
1958.1
1961
1956.3
1950.2
1962.9
1993.9
2009
2010.2
2024.3
2035.3
2032.9
2045
2077.8
2105.1
2107.2
2098.3
2091
2081
2070
2052.2
2035.1
2026
2008
1989.6
1980.1
1954.7
1920
1911
1911.4
1896.6
1897.8
1902
1885.4
1895.5
1910.2
1914.3
1973
2073
2148.1
2252.5
2534.1
2800
2753
2537
2305.5
2084.6
1887
1706
1655.3
1715.7
1794.4
1880
1929.8
1950.4
1953.1
1941.6
1944
1950.8
1952.9
1960.4
1963.1
1960
1962.2
1960.8
1961.3
1963
1959
1967.3
1980.6
1977.8
1973.2
1979
1991.1
2008.9
2021.2
2032.2
2035
2031.8
2055.2
2072.4
2084
2104
2098.7
2105.3
2128.9
2141.1
2158
2172.1
2180.7
2198.7
2227.6
2246
2252.8
2270.6
2284.4
2297.3
2308
2304.1
2319.9
2338
2331.5
2320
2296.3
2265.3
2241.9
2216.1
2186
2156.5
2130
2114.5
2095.8
2062
2036.8
2025.9
2014.2
1995.3
1982
1975.4
1961.2
1961.1
1971.6
1961
1950.4
1960
1970.1
1973.9
1971
1964.6
1964.7
1958
1962.8
1972
1955.4
1955.9
1966.9
1966.6
1972
1967.2
1959.5
1961.2
1960.1
1966
1970.8
1955.4
1949.5
1959.2
1954
1948.6
1951.5
1944.6
1943.9
1952
1951.4
1954.1
1952.7
1945.2
1948
1947.1
1940.4
1939
1939.5
1941
1938.8
1935.8
1955.1
1984.4
1995
2004.3
2019.4
2021.5
2024.3
2037
2058.2
2092.1
2103.3
2101.6
2113
2103.6
2076.7
2047.5
2026.7
2016
2004.5
2002.8
1990.6
1973.9
1951
1905.1
1895.2
1913.2
1907
1901
1905.9
1910.9
1914.5
1920.8
1966
2059.1
2129.8
2212.6
2471.1
2773
2808.8
2605.5
2348.2
2135.8
1949
1752.3
1660.2
1704.8
1794.6
1880
1930.4
1941.6
1932.6
1936.2
1954
1955.8
1952.3
1955.9
1953.2
1953
1967.8
1973.8
1961.7
1967.8
1988
1988.9
1983.6
1981.4
1990.1
2005
2004.1
2004.6
2009
2017.9
2036
2044.7
2055.1
2072
2079
2082
2092.3
2110.9
2131.8
2143.3
2155
2167.9
2164.1
2178.1
2222.7
2252
2258.1
2259.2
2266.8
2279.7
2295
2310
2315
2315
2313.2
2304
2292.8
2271.7
2232.8
2208.9
2197
2167.8
2142.3
2113.1
2074.5
2053
2043.3
2034.2
2014.2
1991.9
1983
1973.5
1961.6
1957.2
1965.3
1975
1970.6
1963.4
1961.3
1960.1
1960
1961.7
1962.9
1959.1
1963.5
1965
1952.5
1957.4
1968.3
1972.9
1979
1974.5
1975.2
1977.5
1965.2
1966
1979.7
1972.1
1958.1
1965.6
1971
1964.7
1969
1974.1
1967.5
1966
1964.2
1949.5
1943.6
1951.6
1958
1962
1959.8
1953.3
1955.6
1959
1963.6
1984
2001.8
2006.6
2021
2039.8
2043.3
2040.3
2052.3
2080
2108
2122.1
2116.4
2106
2092
2069
2056.4
2044.1
2017
1993
1982.4
1978.7
1965.5
1944.4
1934
1932.3
1930.4
1929.2
1927.8
1929
1933.9
1933.5
1940.3
1982.7
2070
2152.5
2233.5
2451.6
2739.8
2799
2596.5
2365.8
2192.3
2002.7
1811
1714.7
1741.3
1828.8
1915.6
1964
1972.3
1981.4
1992
1984.2
1982
1993
1990.7
1982.1
1989.5
1996
1991.2
1991.2
1991.1
1988.3
1995
2005.2
2012.3
2018
2026.4
2027
2024.2
2037.2
2043
2051.2
2065
2052.4
2053.1
2077.8
2097.8
2115
2124.7
2130.5
2138.7
2158.5
2181
2187.1
2197.1
2219.9
2241.1
2257
2267.1
2277
2291.3
2302.2
2306
2311.1
2320.4
2325.1
2318.3
2298
2272.2
2248.8
2223.4
2209.2
2197
2166.1
2139.4
2115.2
2094.1
2076
2043.3
2025.6
2021.7
2012.9
2002
1986
1981.5
1984.6
1989.5
1983
1966.3
1977.6
1982.9
1974.5
1980
1982.7
1992.9
1989.6
1974.6
1987
1999.3
1997.2
1999
2006.2
2009
1999.6
1990.3
1994.2
1997.6
2001
2006.7
1993.4
1982.6
1992.1
1993
1989.5
1994.2
1991.3
1989
1996
1996.2
1995.4
1996.1
1980.4
1972
1979.5
1973.6
1983.4
2014.9
2038
2058.8
2065.2
2065.2
2075.2
2087
2108.1
2129.8
2136.7
2133
2126
2111.8
2088.7
2069
2050.5
2036
2033.5
2022.2
1999.6
1978.9
1952
1929.8
1932.5
1943.4
1948.1
1952
1954.9
1952.2
1936.8
1946.1
2011
2094.1
2158.7
2240.6
2454.9
2714
2753.1
2569.6
2348.3
2197.7
2034
1815.8
1716.2
1739.2
1809.9
1913
1968.1
1982.7
1985.5
1986.4
1994
1985.6
1982
1985.7
1993.3
2002
1993.6
1992.4
2004.9
2018.9
2028
2025.4
2030.3
2037.1
2034.8
2039
2046.2
2050.1
2056.5
2063
2076
2094
2094.5
2087.1
2091.5
2107
2131.4
2149.5
2154.5
2160.6
2174
2186.1
2193.8
2205.6
2219.1
2226
2238.1
2258.5
2264.9
2268.6
2287
2303.5
2311.2
2304.4
2288.8
2282
2277.2
2259.6
2229.1
2206
2191
2162.6
2132.5
2113.6
2095.9
2065
2041.1
2042
2021.7
2001.9
2011
2002.4
1992.8
1994
1986
1982
1979.7
1974.1
1970.2
1965
1965
1972.7
1968.9
1959.4
1965.1
1975
1975.9
1974.2
1974.2
1974.6
1976
1972.6
1963.5
1964
1969
1965
1957.5
1958.7
1979.6
1997.5
1989
1978.6
1980.4
1981.1
1982.9
1977
1966.7
1974.8
1974.7
1975.6
1983
1967.4
1966.3
1976.4
1991
2017
2019.8
2027.4
2048.6
2048.1
2038
2049.5
2087.2
2116.4
2121.2
2118
2110.4
2096.2
2077.1
2055.8
2030
2005.9
1998.7
1998.9
1995
1986
1962.6
1936.5
1930
1934.1
1938
1941.4
1938.9
1940.9
1940.5
1953
2024
2113.5
2186
2310.8
2584
2816.4
2722.5
2497.6
2327.5
2164
2012.2
1824.6
1715.9
1750.7
1823
1911.8
1952.5
1950.4
1970.4
1990
1997.9
1992.4
1976.6
1979
1986
1975.2
1978.3
1990.3
1979.4
1976
1993.3
1996.5
1988.5
1989.4
1997
2011.4
2024
2025.6
2026.5
2040
2052.2
2047.8
2051.8
2071
2082
2087.6
2093.8
2098.6
2111.9
2135
2150.8
2161.8
2181.3
2192
2191
2208.6
2236.5
2248.4
2264.4
2278
2278.6
2296.3
2303.8
2296.8
2304
2287.6
2252.1
2240.2
2232.6
2206
2176.4
2155.1
2139
2118.2
2094
2071.2
2041.7
2024.2
2023.2
2019
2008.2
1994
1997.2
2001.1
1987
1982.4
1989
2000.9
1998.7
1991
1999.4
1989.9
1985.7
1998.8
1998
2001.5
2005.8
2004.6
2007.2
2010
2011.8
2007.8
2007.9
2021
2026
2017.9
2013.7
2006.7
2003.1
2014
2017.6
2012.6
2012.1
2009.2
2006
2005.5
1996.8
1988.3
1996.9
2012
2015.6
2007.2
2002.7
2019.1
2041
2050.2
2062.3
2078.7
2086.2
2085
2091.5
2124.2
2155.8
2159.2
2152
2147.9
2136.3
2110.6
2095
2080
2048.4
2034.5
2033.7
2036.7
2033
1998.1
1975.2
1974.5
1970.6
1982
1987.8
1962.1
1959.5
1981.1
2002
2062.5
2150.3
2230.4
2318.9
2575
2880.6
2830.9
2587.9
2379.8
2167
2007.4
1840.5
1751
1810.1
1887
1967.8
2020.5
2024.4
2018.2
2014
2018
2030.9
2052.3
2048.6
2025
2035
2055.8
2056.5
2050.9
2046
2050.3
2062.4
2068
2076.4
2090
2092.6
2095
2104.1
2101.9
2104
2115.4
2116
2132.6
2152.7
2147
2150.6
2164
2174.7
2193.3
2209
2220.6
2234.1
2239.9
2252
2277
2294.7
2307.7
2313.7
2319.9
2334
2339.8
2342.7
2346.7
2350.2
2350
2333.1
2312.5
2299.8
2278.3
2247
2217.7
2186.6
2156
2127.2
2106
2092.3
2067.8
2048.3
2039.9
2028
2019.3
2009.6
2003.8
2009.1
1995
1974.7
1990
2003.1
2000.1
2004
1998.3
1996.4
2005.5
2007
2005
1999.3
1994.8
2003.4
2004.8
1994
1994.6
2002.1
2009.6
2007
1994
1997.8
2010.2
2011.9
2012.8
2010
2002.2
1999.9
1993.5
2000.3
2012
1995.1
1984.6
1984.5
1986.1
1999
2005.4
2008.3
2004.4
2011.1
2024
2021.8
2045.9
2072.8
2074.2
2080
2083.6
2093.4
2121.1
2142.9
2144
2137.2
2134.4
2121.4
2097.4
2080
2065.7
2048.7
2039.4
2028.8
2013
2000.1
1982.5
1971.5
1972
1964
1958.6
1966.1
1964.4
1963.2
1967
1981
2048
2130
2198.6
2289
2499.5
2788.9
2797.8
2563.9
2382
2201.5
2013.6
1846.6
1744.8
1783
1863.8
1925.6
1981.2
2013.5
2024
2022.2
2013.3
2013.6
2017.8
2021
2030.7
2024.4
2014.7
2027.8
2036
2029.9
2032.6
2041.2
2049.6
2058
2062.6
2071.3
2075.4
2071.8
2077
2084.4
2086.3
2092.9
2112.3
2117
2109.1
2127.5
2143.3
2157.9
2184
2190.6
2203.9
2217.5
2224.4
2249
2267.7
2276.7
2284.9
2297.3
2317
2328.1
2331.7
2337.1
2345.1
2346
2334.5
2322.5
2307.3
2285.7
2264
2240.5
2214.8
2183.2
2149.1
2122
2106.5
2095.6
2068.4
2045.3
2032
2011.4
2006.7
2000.6
1989
1996
1994
1986.5
1990.1
1984.9
1981
1996.9
2006.2
1996.6
1996.9
2001
2001.4
2008.4
1993.8
1989.3
2012
2013
2008.8
1997.3
1990.8
2008
2007.4
2004.4
2004.7
1995.6
2002
2017.3
2017.5
2005.1
2009.6
2019
2006.1
1997.1
1996.5
1995.8
2002
2003.1
2002.2
2008.5
2009.8
2007
2009.2
2016
2036.7
2067.6
2087
2097.9
2103.7
2096.7
2101.4
2129
2139.6
2129.1
2134.7
2141.7
2116
2077.8
2053.9
2036.1
2019.6
2006
1993.7
1985.6
1973.9
1955.9
1944
1936.6
1930.3
1929.5
1939.5
1949
1944
1939.4
1975.3
2058.3
2138
2194.1
2349.8
2661.9
2818.9
2670
2457.8
2274.7
2102.3
1905.5
1730
1718.8
1797.5
1874.1
1939
1960
1968.3
1983.4
1985.9
1981.3
1981
1979.9
1978.9
1981.6
1982.6
1985
1991.8
1996.6
1999.6
2003
2002
2001.7
2012.2
2024.2
2027.4
2026
2031.2
2043.3
2046.5
2055.1
2072
2078.3
2090.2
2100.7
2106.3
2117
2121.6
2133.4
2150.9
2160.5
2174
2188
2195.8
2211.7
2237.9
2260
2275.8
2288.5
2299
2306.9
2312
2314.6
2310.8
2302.2
2288.2
2271
2252
2229.3
2211
2182.7
2153
2131.5
2084.1
2050.1
2056.8
2052
2029.7
2011.4
2002.9
1999.1
1991
1980.5
1975.9
1984.8
1993.1
1987
1974.3
1965.4
1971.7
1990.7
1993
1982.8
1985.6
1979.4
1966.4
1968
1967.9
1968.3
1970.7
1969.2
1972
1973
1971
1974.5
1975.7
1967
1961.1
1965.7
1975.1
1986
1992
1990.2
1985.7
1978.3
1976.9
1977
1971.2
1978.1
1982.9
1970.2
1975
2000.8
2017.4
2029.3
2040.7
2048
2052.2
2045.8
2055.3
2091.6
2108
2098.3
2097.1
2101
2090.2
2068
2045.8
2031.8
2021.9
2009
1997
1985.4
1963
1932.1
1922.7
1931
1929.6
1929.8
1930
1927.5
1934
1934.8
1944.8
2013.6
2122.1
2195
2328.2
2626.6
2828.8
2734.7
2502
2292.3
2121.9
1924.1
1745.6
1700
1760.9
1854
1928.8
1967.3
1987
1989.9
1984.1
1992.1
1992.3
1986
1993.8
1989.5
1990.2
1997.9
1994
2007.3
2022.1
2025.7
2031.7
2031
2026.4
2030.2
2043.1
2056.2
2065
2068.7
2062.5
2054.1
2068.3
2094
2107.6
2117.5
2121.3
2136.1
2158
2160.2
2172.2
2189.2
2204
2226
2236
2248.9
2262.3
2269.4
2279
2278.5
2285.5
2311.7
2323.5
2316
2313.8
2315
2310.9
2295
2273
2250.2
2213.6
2183.3
2163.9
2138
2116.3
2094.9
2074.3
2056.5
2037
2019
2001.9
1997.2
1991.8
1984
1984.9
1973.1
1968.4
1970.3
1961
1974.4
1989.6
1976.8
1974.3
1984
1973.6
1961.2
1963.7
1971.2
1974
1973.2
1980.2
1977.1
1966.7
1968
1974.1
1982
1976.9
1975.8
1978
1962.4
1966.1
1971.7
1958.7
1965
1980.5
1981.4
1969.3
1961.5
1960
1961
1972.5
1969
1956.9
1964
1974.2
1983.1
1994.3
2017.3
2037
2034.3
2042
2054.2
2070.4
2100
2111
2114.6
2120.1
2112.9
2085
2051.2
2038.9
2021.2
2009
2013
1999.1
1990.1
1975.3
1946.2
1939
1934.1
1922
1924.4
1938.3
1937
1925.9
1929
1941.5
1998.1
2100
2166.3
2266
2527.5
2759.9
2731
2525.4
2304.8
2127.5
1944.5
1766
1706.2
1752.5
1834.4
1919.4
1966
1974
1975.7
1975.7
1969.6
1969
1974.7
1982.4
1993.8
1995.1
1985
1991.3
2010.8
2011.5
2006.5
2018
2029.3
2030.7
2029.4
2031.8
2044
2052.7
2048.4
2055.2
2076.7
2091
2098.6
2103.9
2109.7
2123.8
2123
2108.6
2126.1
2160.7
2190.7
2214
2218.1
2230.2
2251.9
2262.1
2272
2285.6
2301.2
2318
2330
2343
2349.6
2332.9
2320.5
2322.3
2311
2288.5
2261.3
2231.4
2209.3
2186
2155.4
2128.7
2099.7
2074.5
2066
2053.4
2033.2
2023.9
2019.7
2009
1996.8
1988.6
1987.9
1995.5
2000
1993.3
1980.2
1970
1972.1
1980
1971.4
1952
1950.1
1962.6
1972
1973.8
1964.3
1961.8
1986
2007
1997.1
1983.3
1988.2
1992.5
1992
1995.9
1995.9
1997.5
1996
1990
1992.3
1988
1982.9
1987.7
1989
1985.1
1976
1967.9
1968
1972
1973.5
1974.3
1983.7
1991.1
1992
2006.1
2023.9
2031.9
2052.1
2074
2070.8
2074.9
2101.2
2116.8
2109
2106.9
2122.5
2111.6
2081.9
2062
2037.5
2025.8
2025.1
2015.5
2006
1991.5
1970.4
1954.9
1942
1938
1946.6
1947.6
1945.4
1944.4
1938
1955.8
2026.6
2123.1
2199.1
2291
2523.7
2794.1
2770.9
2536.6
2352
2175.6
1989.5
1808.5
1693.5
1735
1835.6
1906.3
1959.1
1997.3
2005
1992.7
1993.3
1999.1
2000.6
2000
1996.3
2001.2
2006.9
2005
2009
2015.1
2012.8
2009
2015.5
2016
2010.2
2018.2
2015.3
2017.7
2037
2038.7
2049.4
2065.3
2070.6
2074
2069.4
2083.2
2105.7
2113.5
2120
2130.5
2146.7
2159
2169.6
2186
2202.9
2227.9
2249.1
2247.5
2248
2270.4
2294.2
2304.3
2303.4
2301
2301.2
2293.5
2280.8
2268.7
2246
2215.4
2188.7
2163.9
2143.1
2114
2078.8
2065.1
2046.4
2014.5
2006
2001
1987.4
1986.3
1970.7
1948
1959.9
1975.3
1978.2
1980.3
1974
1963.5
1951.5
1954.5
1969.3
1968
1962.5
1970.2
1974.4
1965.9
1961
1961.4
1953.3
1946.3
1959.6
1982
1985.3
1971.7
1969.3
1977.1
1978
1970.3
1960.6
1965.2
1968.9
1965
1968.9
1968.7
1977.5
1984.9
1971
1964.5
1961.5
1952.9
1948.6
1947
1956.7
1973.2
1976.5
1986.3
1998
1998.1
2022.9
2048.5
2052
2058
2052.7
2055
2095.2
2125.3
2127
2122.3
2100.7
2086.6
2074.2
2048
2040.1
2032.4
2021.1
2007.7
1988
1983.8
1975.9
1963.9
1960.1
1953
1947.8
1943.8
1942.8
1953.6
1962
1984.7
2069.6
2175.8
2244.7
2369
2633.5
2843.2
2751.8
2498.1
2293
2098.2
1903.5
1758.1
1711.8
1777
1870.2
1938.5
1971
1987.4
2003
2004.2
2005.5
2002
2003.7
2019
2023.1
2026.1
2026
2023.1
2018
2008.2
2023.2
2036.7
2035.7
2044
2042.4
2037.3
2044.8
2056.7
2074
2084
2077.6
2082.3
2102.1
2114
2118.7
2118.2
2118.4
2136.5
2162
2173.8
2180.9
2197.1
2216.6
2227
2233.5
2244.4
2248.3
2266.7
2302
2317.5
2326.8
2336.9
2336.5
2330
2315.9
2303.5
2290.9
2270.3
2240
2208.7
2190.5
2166.1
2141.1
2121
2093
2073.8
2046
2026.9
2033
2019.5
2005.3
2006
2009
2004
1985.8
1985.5
1991.5
1989.1
1993
1988.9
1982.2
1990.3
1994
1991
1994.1
1991.1
1986.6
1986.2
1986
1990.6
1991.3
1996.6
2011.5
2008
1992.5
1997.9
2016.2
2026.6
2018
2000.7
2004.6
2011.9
2006.9
2002
1997.5
1997.8
1989.6
1986.2
1988
1977.8
1982.3
1978.1
1975.7
1992
1986.4
1986.3
1990.3
1989.3
1998
1994.1
1990.6
1992
2007.7
2037
2049.4
2057.9
2059.5
2064
2072
2069.1
2098.7
2133.2
2132.6
2129
2125.6
2112.1
2085.6
2061.9
2051
2040.8
2029.6
2008.3
1995.1
1993
1971.8
1950
1938.4
1932.4
1930
1922.6
1930.5
1952.1
1956
1973
2048.2
2142.4
2210.1
2292.3
2529
2801.7
2772.1
2543.1
2330
2129
1939.1
1738.1
1648
1716.5
1813
1906.6
1960
1957.8
1963.5
1974
1967.7
1971.7
1974.4
1971.9
1981
1984.6
1983.9
1978.4
1975.1
1988
1999.8
2003.3
1999.7
2000.9
2011
2015
2017.7
2022.2
2028.5
2040
2049.4
2057.3
2066.8
2075.1
2079
2078.2
2081.4
2095.1
2117.1
2138
2152.9
2165.2
2174.5
2192.2
2221
2243.5
2253.1
2252.2
2264.7
2290
2295.3
2294.8
2306.9
2317.4
2325
2324.6
2305.8
2285.9
2266.5
2239
2213.7
2186.1
2156.1
2125
2092
2063.8
2040
2030.3
2027.8
2014
1994.7
1970.8
1951.5
1957.1
1976
1976
1961.6
1962.7
1964.4
1959
1960.8
1954.9
1953.3
1956.9
1944
1940.6
1953.1
1956.4
1962.2
1977
1983.2
1982.9
1981.6
1986
1984
1967.7
1966.2
1967.8
1972.4
1989
1985.2
1971.1
1965.7
1973.7
1983
1968.6
1953.3
1952.5
1950.8
1952
1955.6
1953.7
1955.3
1947.4
1929
1932.3
1948
1952
1942.6
1942
1956.1
1960.9
1974
1991.1
1995
2005.5
2011.6
2016.2
2034.8
2036
2041.4
2087.8
2116.1
2129.4
2147
2124.3
2104.8
2103.1
2078
2043
2016.5
2007.1
2002.3
1980.3
1952
1933.4
1923.1
1922.4
1923.6
1915
1910.5
1913.5
1909.6
1922.8
1987
2091.1
2182.1
2254
2443.1
2752
2893.7
2725.6
2429.1
2179.1
1967
1758.5
1620.1
1618.7
1715.7
1826
1906.3
1948.4
1958.6
1951.9
1952
1957.7
1952.9
1954
1950.9
1942
1971.8
2007.8
1999.1
1987.2
2000
2006.9
2003.5
2004.9
2015.4
2021
2016.7
2025.7
2035.2
2037.3
2047
2059.5
2075.7
2085.1
2090.4
2104
2111.7
2113.5
2117.3
2129.5
2151
2169.3
2184.8
2205.8
2237.2
2254
2253.7
2271
2281.2
2288.1
2313
2324.6
2336.8
2354.2
2350.4
2333
2305.7
2274.2
2257.4
2242.5
2220
2192.5
2143.8
2102
2090.9
2081
2062.2
2043.8
2028.7
2015.1
2007
1999.4
1978.9
1968.2
1982.5
1984
1966.8
1964.3
1961.8
1950
1952
1962.2
1967.8
1964.6
1962.8
1967
1967.5
1967.2
1964
1966.8
1985
1993.7
1983.6
1976.5
1987.3
1997
1987.7
1978.3
1984
2000.5
2003
1984.2
1978.2
1981.5
1970
1969
1978
1971
1974.7
1982.5
1974
1971.8
1965.3
1961.6
1974.6
1974
1958.4
1950.5
1955.2
1977.8
2011
2030.7
2041.3
2058
2068.3
2063
2067.9
2105.3
2143.8
2141.2
2122
2113.5
2095.7
2081.3
2079
2055
2021.1
2003.4
1985.9
1979.8
1981
1958.9
1935.4
1912.3
1898
1906
1915.8
1929.9
1928.5
1927.2
1970
2060
2188.6
2300.9
2407.8
2694
3016.2
2969
2665.5
2322.3
2004
1818.1
1669.7
1602.1
1680.1
1779
1884.6
1967.1
1994.9
2004.9
2010
2008.9
2006.6
2007.6
2005.8
2011
2030.5
2036.4
2026.4
2036.7
2063
2079.4
2089.5
2096.3
2109.4
2118
2109.2
2112.4
2115
2110.6
2127
2142
2147.2
2166.8
2189.6
2197
2205.6
2226.8
2247.6
2267.3
2285
2292.4
2305.5
2336.1
2357.3
2364
2379.1
2397.9
2414.2
2434.5
2454
2470.2
2485.1
2491.1
2481.1
2459
2445
2440.3
2413.2
2385.2
2369
2339.4
2313.5
2276.5
2237.8
2220
2197.3
2191.6
2193.2
2169.4
2139
2118.6
2114.8
2116
2113.2
2106
2101.4
2115.6
2127.2
2121.1
2116
2114.5
2113.8
2114.7
2120.1
2126
2127
2127.7
2127.7
2143.7
2154
2143.4
2159.7
2170.9
2159.1
2164
2167
2163.7
2156.5
2151.3
2159
2164.4
2169.2
2172.8
2169.1
2165
2153.4
2141.1
2151.5
2158.9
2153
2157.4
2154.6
2150.2
2153.2
2144
2145.8
2172.9
2195
2210.7
2232
2249.1
2258.5
2259.6
2265.7
2293
2323
2337
2332.1
2314.9
2305
2296.2
2262.2
2228.1
2223.6
2212
2175.2
2158.1
2171.8
2171.2
2152
2133
2112.5
2108
2110.5
2102
2099
2093.7
2106.3
2184.8
2313
2416
2520.2
2764
3041.9
3054
2759.9
2369.5
2069.3
1911.3
1799
1699.4
1726.3
1854
1977.5
2068
2111
2121.7
2106.3
2101.7
2127
2135
2133.1
2132.7
2138.2
2152
2158.1
2162.3
2152.8
2144.9
2162
2168.7
2163.4
2169
2174.7
2173
2179.4
2194.3
2193.8
2187.3
2206
2218.9
2204
2219.4
2246.9
2243
2257.5
2292.3
2312.3
2320.1
2338
2361.6
2363.6
2372.8
2397.6
2407
2414.2
2424.6
2426.9
2426.7
2437
2447.6
2440.3
2433.5
2424.3
2400
2368.6
2329
2304.5
2300.7
2276
2242.8
2218
2165.7
2133.8
2138
2111.1
2084
2070.1
2068.3
2080
2062.8
2043.3
2033.9
2027.5
2044
2055.6
2045.5
2040.1
2038.9
2022
2004.3
2012
2034.3
2032
2021
2020.6
1999.7
1991.8
2003
2000
2007.4
2011
1992.6
1980.1
1985
1984.1
1958.3
1945.7
1964.4
1960
1927.8
1928.8
1953.3
1948.8
1921
1902.7
1903.4
1907
1903.4
1906
1914.4
1906.4
1892.6
1893
1884
1861.6
1871.2
1906.3
1904.2
1900
1936.8
1948.6
1939.3
1953
1965
1980.7
2005.9
2004.1
1988.1
1974
1951.9
1938.1
1919.2
1905.2
1904
1888
1880.1
1866.1
1841.4
1831
1816
1803
1788.8
1780.1
1786
1784.4
1769.1
1738.1
1781.6
1914
2003.4
2092.2
2301.1
2571.2
2624
2390.2
2151.2
1951.3
1771.5
1626
1465.1
1441.8
1542.2
1637.5
1722
1759.1
1779.1
1793.8
1784.7
1788
1797.4
1794.7
1800.1
1815.1
1823
1829.6
1835.4
1837.8
1847
1848
1845.5
1861.8
1861.3
1863
1905
1926.8
1909.4
1900.9
1912.6
1933
1944.8
1949
1968.8
1966.3
1962
2003.1
2015.5
2016.4
2044
2057
2069
2086.4
2115.3
2154.5
2161
2159
2190.2
2208.6
2208.5
2225
2235.9
2235.6
2228.2
2218.6
2212
2183.8
2145.1
2128.3
2114.7
2094
2073
2039
2015.6
1989.6
1956
1945.4
1927
1913.9
1899.4
1879
1895
1899.6
1891.9
1894.4
1891
1900.3
1906.8
1903.7
1900.7
1883
1879.1
1904.9
1909
1909.4
1931
1934.5
1932.4
1931.3
1939.3
1951
1940.6
1947.1
1954.6
1941
1933
1922.8
1917.5
1914.7
1903.4
1897
1906.2
1928.3
1936.6
1935.6
1937
1936.4
1941
1933.3
1933.6
1954
1950.2
1938.9
1939
1945.9
1953
1948.5
1942.3
1924.7
1934.9
1972
1978.9
1987.1
1991.6
1990
2006
1996.4
1994.5
2049.9
2084.1
2078
2078.5
2059.3
2038.5
2027.1
2001
1986.2
1970.2
1955.3
1962.7
1953
1915.7
1890.5
1877.8
1866.5
1855
1853.4
1869.3
1859.7
1862.9
1891
1903.4
1975.6
2069.8
2136.9
2261
2485.7
2678.4
2574.9
2309.8
2121
1946.8
1800
1647.1
1547.9
1606
1701
1800.4
1875.3
1895.2
1909
1911.4
1924.8
1946
1933.9
1922
1937.9
1942.1
1930.5
1928.4
1942
1956.4
1949.2
1949.3
1963.4
1969
1974.7
1972.6
1970.8
1981.3
1988
1994.5
2005.9
2013.8
2025.4
2026
2017
2037.1
2051.5
2055
2080
2102.7
2118.1
2117.3
2122.7
2152
2171.7
2193.8
2211.9
2223
2243
2259.1
2276.9
2288.4
2302
2316
2298.5
2280.6
2275.5
2262.8
2232
2191.7
2167.4
2136.7
2113.5
2111
2090.1
2065.9
2034.9
1998.3
1996
2005.3
1991
1965.6
1969.4
1982
1972.1
1970.6
1966.5
1965.4
1960
1936.9
1959.9
1978.5
1959.5
1965
1965.5
1946.6
1939.9
1959.9
1971
1953
1953.3
1956.9
1954.9
1956
1942.3
1944.3
1946.6
1938.6
1946
1949.5
1948.9
1944.5
1949.3
1955
1934.5
1922.8
1920.8
1923.4
1930
1919.3
1921.2
1933
1936
1937
1924.8
1919.6
1933.4
1931.7
1924
1947
1982.9
2006.2
2019.5
2016
2014.7
2031.2
2030.5
2045.4
2082
2083.4
2080.6
2075
2062.6
2057
2024.9
2000.1
2002.9
1987.2
1968
1961.3
1938.5
1920.4
1911.5
1906
1912.3
1896.5
1888.6
1905
1909
1915.7
1939.6
2004.9
2086.7
2148
2257.7
2478.8
2717.5
2708.9
2473
2248.7
2034.9
1935.8
1750.1
1657
1694.6
1585.9
2038.5
1566.6
