1725.8
1685
1661.7
1643.5
1611.2
1608.6
1600
1558.2
1541.7
1531.7
1528.7
1536
1511.5
1508
1517
1520.8
1526
1510.4
1520.9
1534.6
1550
1564
1508.2
1471.8
1520.1
1591.8
1647
1700
1788.5
1882.2
1953.9
1975
1939.7
1920.6
1892.9
1830.3
1785
1738.8
1688
1653.1
1586.2
1499
1466.8
1456.6
1415.8
1385
1353
1298.9
1272.4
1255.8
1247.1
1272
1281.2
1279.9
1298.3
1311.4
1310
1312.3
1325.7
1338.4
1345
1343
1337.7
1345
1361.7
1380.4
1385
1364.6
1338.8
1310.2
1287.2
1260
1211.1
1175.9
1144.4
1110.3
1099
1090.2
1076.7
1059.6
1044.8
1032
1013.7
1011.4
1022.4
1027.4
1022
1021.3
1066.4
1134.5
1174
1309
1608.9
1794.5
1669.3
1413.3
1242
1119.3
956.97
854.38
848.87
890
978.41
1039.5
1048.4
1071.4
1086
1069.1
1074.1
1096.1
1109
1124
1145.9
1173.9
1187.8
1205.8
1234
1240
1252.1
1277.3
1301.5
1328
1343.3
1367.1
1406.3
1408.8
1386
1386.8
1391.1
1394.2
1404.9
1424
1444.9
1439.2
1448.5
1488.3
1530
1578
1603.9
1620.2
1664.3
1701
1715.1
1732.7
1747.7
1757.5
1768
1767.9
1761.1
1736.9
1698.4
1692
1703.7
1678.2
1643.4
1647.2
1651
1627.4
1623.6
1656.1
1686.2
1698
1709.3
1730.3
1749.7
1751.3
1743
1748.9
1762.7
1755.4
1727.4
1682
1618.2
1562.8
1527.2
1511.4
1477
1402.5
1342.4
1308.3
1344.5
1456
1546.8
1615.7
1663.6
1680.8
1689
1686.4
1695.1
1700.5
1678.9
1675
1682.6
1659.9
1651.2
1671.1
1668
1647.7
1630.6
1614.7
1649.1
1734
1820
1884.6
1939.4
2149.2
2373
2273.9
2048
1902.5
1783.7
1642
1482.8
1442.8
1504.9
1569.1
1651
1728.2
1786.3
1843.7
1876.9
1908
1965.7
1995.6
1996.7
1963
1891
1843.4
1825
1846.2
1892.8
1916
1939.2
1961.4
1957.6
1946.3
1918
1867.7
1857.4
1886.8
1903.7
1913
1950.7
2006.1
2018.7
2016.9
2045
2056.7
2050.3
2055
2071.3
2093
2107.4
2122.2
2153.8
2192.8
2229
2264.1
2294.5
2323.9
2351.1
2366
2373.5
2381.4
2389.1
2384.5
2368
2348.3
2321.9
2304.4
2302.1
2300
2287.1
2258.6
2242.4
2258.3
2288
2307.6
2307.7
2316.2
2353.1
2399
2434.8
2462.4
2498.3
2541.2
2571
2585.4
2594.4
2603.9
2623.3
2657
2694.1
2718.7
2725.1
2728.5
2738
2743
2739.1
2720.6
2682.3
2646
2623.8
2604
2591.6
2582.4
2559
2532.9
2521.7
2536.5
2593.6
2638
2622.4
2628
2693.2
2767
2820
2972.4
3261.4
3346.6
3162.5
2958
2789.8
2657.8
2477.4
2305
2275
2300.3
2356.3
2428.3
2456.6
2453
2438.2
2433.5
2427.7
2414.2
2415
2410.4
2395.5
2420.2
2458.6
2466
2497.2
2552.6
2540.8
2453.9
2411
2454.4
2496.2
2526.3
2570.8
2602
2635
2681.2
2695.9
2688.5
2714
2757.7
2780.5
2798.9
2828.6
2856
2878
2903.5
2935.9
2965.9
2996
3019.4
3036.8
3094.9
3149.8
3152
3171.4
3192.4
3136.3
3051.5
3017
3015
3002.7
2987.1
2996.3
3013
2999.9
2979.4
2981.1
2979.6
2950
2926
2941.5
2957.7
2944.5
2926
2914.1
2904.9
2905.9
2925.1
2938
2940.6
2955.8
2946.5
2915.9
2947
3014
3040.3
3059.8
3074.5
3068
3069.4
3059.7
3054.8
3054.2
3006
2946.2
2909.8
2876.1
2863.7
2848
2808.4
2802.2
2778.7
2725.2
2726
2736.2
2714.2
2723.4
2766.4
2833
2889
2974.5
3275.1
3491.6
3326
3023.9
2721.9
2533.9
2410.5
2233
2164.5
2187.6
2244.5
2333.4
2385
2409.6
2411.2
2385.9
2346.9
2324
2328.2
2319.5
2313.5
2318.2
2306
2302.7
2320.9
2335.3
2336
2326
2316.3
2312.6
2309.6
2319.1
2333
2327.5
2332
2355.5
2362.2
2352
2359.4
2388.7
2405.3
2417.2
2437
2451.9
2466.8
2467
2483.2
2525
2545
2566.9
2598.8
2654.4
2696
2675.6
2668.4
2646.4
2624
2626
2587.2
2575.6
2568.4
2530.5
2508
2469
2456.8
2483.9
2462.6
2432
2432.2
2398.6
2370.1
2371.5
2355
2347
2330.1
2285
2276.6
2308
2326.8
2324.9
2305.8
2294.4
2294
2284.9
2308.1
2352.3
2366.5
2354
2320.1
2290.3
2296.5
2296.7
2266
2230.4
2188.6
2160.9
2135.6
2092
2070.2
2064.1
2048.7
2028.6
2002
1990.5
1987.8
1945.8
1947.7
2045
2139.1
2244.4
2462.4
2800.5
2963
2683.4
2223.9
1884.8
1684.1
1560
1478.9
1515.4
1680.5
1838.6
1920
1953
1961.2
1981.9
2011.8
2040
2052.2
2031.4
2069.6
2094.6
2042
2044.6
2065.4
2076.1
2104.1
2105
2102.4
2110.2
2120.5
2146.3
2161
2162.3
2186.3
2203.1
2215.4
2243
2255.9
2275.5
2296.4
2308.5
2320
2322
2336
2341.5
2347.5
2400
2443.5
2444.6
2459.9
2493.7
2508
2507.5
2496.2
2473.7
2461.6
2434
2395.6
2391.9
2366.3
2331.2
2310
2268.3
2258.4
2223.3
2163.1
2171
2182.6
2168.1
2157.3
2170
2170
2132.6
2128.3
2124.7
2108.4
2115
2119.3
2146.3
2168.9
2172
2188
2193.5
2194.1
2205.9
2261.7
2318
2294
2257.2
2239.2
2225.7
2230
2217.7
2175.3
2124
2095.4
2087
2044.1
2000.9
2021.4
2005.4
1947
1963.2
1981.6
1960
1949.9
1994
2108.2
2211.8
2332.7
2570.4
2874
2986.3
2647.9
2061.3
1688.6
1557
1456.1
1428.1
1518.4
1665
1800
1866.1
1906.8
1930.4
1919.6
1926
1942.3
1923.3
1899.4
1923.5
1958
1965.7
1979.4
1989.6
1971.4
1980
2023.6
2039.7
2045.1
2056.9
2072
2101.4
2107.3
2104.6
2118.4
2140
2168.7
2178.2
2193.9
2222.8
2247
2273.2
2283.4
2315.1
2366.2
2394
2416.6
2440.9
2486.6
2525.4
2543
2571.4
2571.6
2568.4
2573.1
2552
2523.3
2484.9
2473.4
2473
2445
2430
2408.8
2370
2332.3
2295
2280.5
2296.4
2322.9
2324.6
2317
2322.5
2295.2
2256.2
2249.4
2250
2247.3
2259
2294.3
2324.2
2332
2329.8
2318.8
2346.4
2431.6
2478
2444.3
2424.5
2453.2
2468.1
2430
2403
2413.1
2347.3
2294
2310
2285.7
2284.5
2251.7
2169.3
2153
2152
2167.3
2198.1
2185.1
2188
2273.8
2387.4
2475.4
2621.6
2929
3200.4
3121.1
2763.6
2327
1975
1844.5
1797.9
1768
1869.2
2044
2180.6
2255.6
2258.8
2275.3
2335
2360.9
2377.6
2363.8
2343.9
2364
2382.7
2427.5
2454.4
2474.2
2519
2509.4
2499.2
2513.1
2507.4
2523
2560.2
2582.9
2597.8
2619.2
2608
2579.5
2597.9
2614.6
2628.6
2692
2738.4
2737.3
2750.2
2795.6
2860
2890
2873.6
2924.8
3001
3022
3058.8
3093.2
3123.9
3155.9
3162
3180.3
3184.9
3171.2
3171.2
3161
3116.2
3067.4
3057.4
3029
2992
3019.3
3004
2911.9
2891.3
2894
2826.5
2806.1
2828.6
2804.5
2759
2728.8
2749.9
2795.5
2819
2837
2836.5
2810
2810.1
2835.6
2849
2860.7
2861.8
2852.4
2859.1
2869
2847.5
2793.9
2736.9
2672.4
2632
2623.6
2581.1
2543.8
2515.6
2490
2507.9
2503.3
2501.9
2494.8
2457
2482.5
2555.9
2650.9
2701
2817
3138.8
3315.1
3153.9
2865.8
2623
2445.5
2245
2091.9
2103.5
2231
2386.4
2478.8
2473.5
2464
2488
2474.7
2444.4
2447.3
2465.4
2459
2448.8
2477.8
2494.1
2498.1
2513
2485.7
2456.4
2469.5
2486.2
2502
2528.9
2532.3
2498.3
2491.9
2504
2484.4
2481.3
2498.3
2508.1
2534
2542.9
2517.6
2517.9
2534.6
2542
2578
2623.6
2644.8
2661.7
2683
2714.1
2761
2789.5
2774.4
2752
2745.4
2737.6
2731.1
2718.1
2671
2615.8
2606.1
2627
2608.7
2575
2563.3
2524.2
2490.1
2479.9
2466
2468.1
2465.5
2466.7
2475.2
2460
2444.5
2431.5
2417.2
2439.4
2502
2550.5
2550.7
2524.4
2501.8
2502
2538
2575.2
2554.7
2508
2487
2489.4
2503.5
2490.5
2465.6
2453
2411.1
2362
2339.6
2317.5
2296
2282.4
2268.8
2272.8
2289.6
2294
2290.9
2294.9
2341.6
2413.6
2423
2488.3
2770.1
2995.4
2896.3
2645
2455.4
2315.4
2130.6
1954.6
1895
1950.7
2072.7
2159.9
2178.2
2203
2242.9
2251.1
2241
2260.4
2277
2266.9
2280.1
2284.6
2255.6
2260
2282.8
2284.7
2309.3
2335.7
2338
2344.2
2327.2
2311.2
2324
2311
2290.9
2309.4
2329
2319.1
2310
2312.4
2316.2
2332.2
2351.5
2374
2391.3
2376.1
2379.1
2414.4
2454
2508.2
2542.1
2562
2595.9
2623
2629.9
2620.6
2625.6
2627
2615
2615
2595.3
2565.2
2545.8
2517
2490.4
2467.6
2438.8
2409.3
2375
2355.7
2369.2
2368
2341.9
2334
2327.1
2304.1
2292.1
2292.1
2295
2314.9
2338.4
2339.2
2345
2349
2348.6
2377.8
2373
2354.9
2374
2368.5
2367
2369.7
2323.5
2277
2257.1
2233
2205.1
2178.7
2162
2154.4
2128.8
2111.4
2110.6
2108
2116.4
2111.6
2109.6
2144.5
2208
2252.2
2328.2
2599.5
2823.7
2725
2501.1
2315.4
2180.4
2002.1
1805
1769.2
1821.6
1894.3
1988
2030
2040.9
2054.7
2065.6
2073.5
2071
2058.7
2044
2031.1
2045.3
2075
2075.4
2066.1
2063.4
2057.4
2068
2087.5
2086.3
2083.5
2096.2
2109
2113.9
2106.9
2100.4
2112.7
2126
2124.8
2125.4
2134.4
2153.9
2170
2166.8
2172.3
2194.7
2216.7
2242
2268.1
2295.4
2337.9
2378.6
2400
2412.9
2421.4
2433.3
2435.7
2421
2406.3
2380.3
2352
2330.6
2303
2273.4
2245.4
2221.7
2199
2173
2155.5
2138.2
2109.3
2099.6
2102
2079.8
2060.6
2052.9
2043
2040
2048.2
2064.1
2069.2
2080.9
2091
2072.3
2077.6
2107.9
2125.6
2135
2133.8
2128.5
2123.3
2118.7
2114
2083.8
2035
2014.1
2004.4
1980
1952.8
1916
1890.9
1870.4
1840
1827.9
1818.6
1808.8
1793
1786
1852.8
1942.5
1982.1
2068.8
2353
2618.5
2523
2269.8
2091.4
1911
1719.4
1528.4
1430.1
1496.3
1603
1670.5
1714
1722.5
1709.9
1696
1678.7
1683.4
1683.5
1662.8
1659
1668.6
1682.7
1691.7
1679
1669
1684.9
1704.5
1714.5
1719.3
1720
1723
1731.5
1745.3
1749.8
1740
1743.7
1764.9
1774.3
1772.6
1784
1806.8
1827.1
1842.2
1856.5
1880
1913.8
1946
1974.5
2005.4
2033
2052.4
2067
2077
2088.4
2091
2080.1
2067.8
2035
2006.3
1999
1976.4
1951.3
1921.7
1889.4
1860
1815.8
1791.3
1781
1761.2
1744
1743.7
1765.6
1760
1740.5
1735
1720.6
1726.3
1730.2
1731.8
1761
1780.4
1783.5
1772.2
1790
1833
1853.7
1897
1916.7
1890.3
1883
1875.7
1877.2
1891.9
1866.7
1816
1787.4
1771.2
1743.3
1702.8
1669
1652.4
1640.3
1643.2
1652.3
1637
1598.7
1591
1707.4
1866.5
1908
1962.5
2241.7
2573.5
2576.7
2239
1873.7
1606.2
1376.9
1228.3
1218
1294.7
1398.3
1484.6
1526
1540
1556.7
1565.6
1535.1
1518.2
1533
1522.7
1505
1488.1
1489.2
1500
1479.7
1488.7
1523.8
1542.7
1559
1575
1600.1
1610.2
1612.8
1627
1637.4
1657
1657
1654
1699
1737.8
1738.6
1737.5
1750.9
1769
1788.9
1819.4
1855.5
1893.1
1928
1947.7
1960
1983.6
2009
2024
2025.9
2013.1
2003.6
1987
1949
1920.9
1913.8
1910.2
1885
1856
1845.4
1823.6
1800.6
1769.8
1737
1732.3
1706.2
1673.1
1666.2
1651
1635.7
1635.5
1645.1
1657.9
1657
1661.8
1696.9
1718.4
1714.3
1717
1734.4
1776.1
1817.8
1840.2
1852
1847.4
1835.5
1818.1
1804.4
1794
1769.2
1735.7
1689.8
1661.3
1636
1579.1
1558.5
1560.5
1541.5
1533
1541.6
1562.1
1548.2
1523.3
1572
1675.5
1772.5
1917.1
2264
2546
2398.6
2048.9
1700.2
1404.1
1229
1128.6
1166
1310.8
1428.8
1510
1545.9
1551
1572.2
1573.3
1554
1564.3
1561.3
1546.9
1543.2
1546
1554.2
1534.6
1539.9
1581.8
1593
1612.7
1641.5
1615.7
1621.4
1677
1689.4
1696
1697.6
1705.8
1719
1694.1
1733.1
1800.7
1805.9
1816
1838.8
1853.2
1885.3
1935.3
2005
2078.8
2114.5
2139.4
2151
2144
2175.9
2209.3
2201.7
2182.6
2161
2143.2
2132
2108.6
2082.6
2056
2016.7
1994.2
1988.7
1980.3
1953
1913.5
1917.1
1933.9
1915.6
1892
1874.2
1854
1852.8
1898.9
1914
1866.4
1877.6
1931.1
1957
1970
1968.1
1972
1982.6
1995.1
2043
2072.8
2043.4
2037.6
2027.9
2007
2021.4
1962.1
1883.7
1877.3
1859
1825.3
1797.3
1764.8
1739.4
1713
1698.8
1716.7
1725.6
1727.8
1725
1724.4
1810.1
1908.1
1959.9
2129
2429.8
2593.4
2450.7
2174.4
1970
1779.4
1557.7
1456.5
1497.9
1587
1694.9
1747.2
1739.4
1762.1
1778
1749.9
1750.4
1767
1761.6
1757
1736.9
1718.6
1740.8
1751.6
1746
1773.9
1786.4
1763.1
1767.9
1796
1801.2
1789.4
1797.6
1834.7
1857
1840.1
1825
1827.7
1837.9
1858
1880.5
1904.4
1926.6
1948.2
1972
1996.2
2027.3
2061.7
2105
2142
2159.7
2189.6
2218.6
2236.9
2244
2215.6
2187.8
2183.2
2178.9
2172
2154.7
2119.1
2074.2
2033.3
2013
2013.2
1997.3
1955
1934.2
1947
1951.9
1935.8
1915.3
1907.2
1917
1917.9
1900.9
1899.3
1905.8
1900
1899.6
1911.7
1939.3
1958.5
1957
1968.8
2003.5
2052.6
2072.9
2063
2060.5
2047.5
2048.9
2053.9
2015
1985.4
1976.1
1935.7
1892.6
1881
1870.1
1848.1
1825.4
1806.7
1803
1803.2
1790.8
1777.8
1803.3
1878
1949.5
1994.4
2122.2
2411.6
2590
2448.6
2228.5
2050.1
1855.4
1673
1536.4
1518.6
1606.7
1720.6
1809
1834.6
1831.5
1828.4
1826.8
1816
1789.3
1792.6
1827.9
1834.2
1817
1809.9
1805.2
1816.9
1834
1836
1854.9
1879.1
1879.2
1886.7
1911
1930
1947
1953.1
1957
1978
1996.4
2003.8
2005.6
2030.5
2064
2071.9
2088.5
2102.8
2114.1
2143
2169.2
2209.5
2249.3
2273.4
2302
2320.2
2326
2326.7
2323
2312
2290.2
2266.2
2231.1
2187.4
2167
2164.9
2142.7
2105.5
2095.3
2088
2059.3
2048.5
2036.5
2021.3
2021
2009.1
1995.6
1979.2
1979.9
1999
1980.4
1958.1
1965.3
1973.5
1996
2022.8
2019
2026
2057.6
2092
2139.8
2165
2158.1
2169.4
2182
2175.7
2180
2167.6
2121.3
2089
2069.1
2038.2
2010.6
1989.6
1962
1935.3
1923.8
1920.5
1917.2
1905
1883.1
1886.8
1950.4
2047.1
2108
2237.2
2543.7
2741.4
2620.2
2357
2101.7
1856.8
1539.5
1146.8
864
809.03
879.82
980.27
1157.7
1359
1434.1
1403.5
1370.1
1391.1
1477
1604.8
1757.4
1914.6
2089.5
2267
2363.8
2404.9
2474.8
2514.9
2481
2410.5
2283.3
2138
2026.9
1930
1854.6
1803.7
1759.6
1710.4
1674
1683.9
1727.4
1786.9
1870.7
1956
2030.3
2122.2
2210.6
2269.9
2333
2414.1
2487.9
2531.1
2540.7
2537
2519.1
2468.8
2408.4
2347.1
2281
2232.1
2194
2160
2134
2109
2085.5
2068.2
2060.5
2044.3
2018
2003.3
1995.6
1992.6
1993.6
1977
1952.3
1940.7
1931
1933.2
1954
1959.8
1956.3
1971.9
1994.4
2033
2070.3
2056
2043.6
2059.4
2099
2180.4
2225.9
2221.8
2211.2
2198
2194.6
2184.4
2167.6
2140.7
2103
2073.8
2031.2
1984.3
1956.4
1940
1928.8
1921
1934.5
1948.3
1936
1929.4
1969.7
2072.8
2176.6
2258
2501.4
2855.7
2877.8
2593.2
2316
2021.7
1733.5
1525.5
1444.5
1523
1645.6
1743.4
1806.8
1825
1835
1846.9
1841.4
1838.5
1844.1
1841
1850.8
1871.9
1874.1
1875.1
1884
1895.3
1915
1910
1914.2
1955
1971.7
1978.5
1996.6
2018.1
2033
2029.1
2037.7
2044.8
2042.4
2069
2101.9
2110.6
2121.2
2159.3
2191
2198.8
2222.7
2257.4
2281.7
2301
2324
2360.9
2387.3
2396.8
2389
2354.2
2334.8
2331.6
2311.5
2279
2243.4
2215.3
2191.2
2158.6
2130
2109.3
2082.9
2057.7
2027.5
1997
1995.6
2002.4
1994.8
1987.2
1991
1996.6
1994
2001.1
2005.9
2003
2008.6
2011.2
2037.7
2074.1
2083
2079.4
2066.7
2087.5
2141
2175
2200.1
2201.8
2166.8
2149.9
2155
2139.3
2109.2
2071.6
2041.8
2022
1990.3
1959.2
1912.3
1874.5
1890
1904.5
1885.9
1866.1
1860.6
1855
1868.3
1940.3
2027.2
2120.2
2395
2744.8
2744.1
2453.8
2184.9
1935
1686.9
1525.5
1492
1562.2
1688
1797.1
1828.9
1830.6
1856.7
1873
1871.3
1885.7
1892.6
1888.2
1893
1892.7
1887.7
1884
1897.5
1926
1928.4
1921.2
1937.7
1955.7
1966
1977.3
1984.5
2006.7
2044.2
2045
2027.5
2049.4
2075.5
2095.9
2127
2143.1
2157.3
2168.7
2188.3
2216
2228.1
2258.4
2289
2320.4
2362
2372.7
2390.2
2419.8
2420.7
2400
2374
2359.6
2339.3
2306.7
2290
2281
2253.2
2213.1
2185.9
2165
2141.6
2127
2105.3
2085
2082
2068.8
2048.5
2039.3
2031
2027
2022.1
2003.4
1995.4
1994.2
1994
2018
2040.4
2055.3
2079.4
2096
2109
2137.5
2175.7
2197.5
2201
2199.2
2189.7
2185.5
2181.6
2152
2113
2088
2063.2
2030.7
2015
2004.8
1970.2
1947.1
1944.5
1939
1946.1
1952
1931.3
1921.8
1977
2073.7
2140.6
2242.5
2515.2
2739
2628.8
2373.6
2171.2
1983
1781
1621.9
1598.9
1662
1748.8
1824
1823.5
1810.1
1825.9
1837
1846
1855.7
1857.6
1846.8
1841.9
1846
1846.9
1858.7
1874.3
1888.6
1906
1912.5
1920.8
1944.1
1972.5
1997
2007.7
2010.9
2027.7
2051.1
2055
2050.6
2064.5
2083.5
2095.2
2113
2140.1
2167.4
2189.2
2211.7
2241
2262.4
2271.4
2290
2323.1
2332
2319.8
2312.7
2273.4
2235.3
2236
2214.2
2178.3
2153.7
2119.7
2081
2046
2018.3
1996.5
1975.8
1951
1935.3
1941.6
1941.5
1933.3
1940
1941.4
1923.3
1903.4
1898.3
1896
1885.4
1881.6
1882.4
1884.7
1893
1895.3
1892.7
1898
1909.9
1927
1942.4
1949.2
1957.7
1950.8
1921
1908.9
1909.5
1881
1823.6
1778
1750.6
1713.4
1682.1
1665.3
1645
1625.1
1602.8
1584.4
1599.5
1628
1627.8
1622.9
1671.6
1768.3
1837
1883.3
2063
2355.8
2413.9
2196
2013.1
1894.9
1754.5
1587.6
1456
1467.9
1558
1636.7
1699.6
1722
1708.8
1694.2
1687.9
1690.9
1690
1672.3
1666.8
1679.3
1688.4
1692
1687.6
1680.7
1682.8
1691.1
1686
1680.3
1702.3
1724
1741.3
1773
1797.3
1811.4
1820.2
1837.8
1870
1897.3
1918.4
1928.4
1953.4
1986
1994.4
2024.8
2066.9
2091.7
2128
2168
2198.1
2220.3
2237.4
2249
2252.1
2251.3
2235.4
2204.7
2184
2171.9
2147.4
2115.7
2091.8
2065
2032.6
2015.9
2013
2006.9
1991
1968.3
1953.9
1955
1960.1
1958
1946.9
1943.5
1960.8
1966.1
1962
1984.6
2011
2031.8
2054.2
2066
2082.2
2106.2
2124
2156.1
2184
2180
2178.3
2176.2
2185.4
2203
2175.4
2137.4
2112.6
2082.6
2052
2014.5
1984.6
1973
1960.1
1944
1939.1
1937.3
1924.6
1914.1
1930
2000.8
2094.9
2145.2
2245.8
2534
2763.7
2639.5
2379.8
2177.8
2001
1860.5
1714.3
1660
1740.1
1828
1912.5
1975
1999.9
2016.1
2019
2019.1
2031
2041.1
2048.7
2057
2058.6
2066.1
2079.3
2084.8
2082
2082.6
2097.2
2111
2127.7
2150
2153.3
2153.1
2170.2
2190.4
2199
2206.8
2226.8
2241.4
2255.1
2286
2313.7
2338.7
2381
2409.6
2428
2470.7
2508.9
2540.5
2576.3
2601
2625.1
2643.4
2648.5
2653.5
2654
2644.3
2628.8
2605.2
2584.6
2564
2533.4
2515
2498.3
2466.9
2445
2431.8
2417
2410.3
2401.6
2386
2379.4
2367.5
2343.6
2333.5
2336
2329
2321.8
2341
2376.4
2396
2398.6
2402.3
2405.4
2408.6
2445
2498.9
2504.2
2478.6
2472.1
2469
2461.4
2453.2
2422.1
2385.3
2359
2323.9
2293.7
2267
2229.3
2201
2183.7
2169.5
2168.6
2179.1
2168
2150.7
2193.1
2285.4
2381.6
2440
2576.7
2888.6
3033.4
2849.7
2517
2182.3
2006.8
1872.9
1745.6
1775
1873.6
1976.7
2048.3
2082.6
2118
2128.9
2136
2133.1
2122.3
2131
2135.3
2137
2137
2133.2
2142
2158.1
2173.3
2179.2
2176.3
2175
2182.3
2200
2212.7
2219.2
2233
2247.3
2258.7
2272.9
2281.4
2288
2306
2321.6
2328.5
2350.5
2381
2401.7
2427
2451.4
2464
2483
2513.4
2540.9
2554.8
2555.1
2544
2525.9
2505.9
2477.1
2446.3
2427
2409.1
2381.1
2345.6
2312.6
2288
2265.9
2243.3
2222.4
2198.2
2168
2148.7
2146.1
2139.1
2130.8
2126
2109.7
2097
2098.1
2097.9
2104
2121.6
2130.2
2129.1
2128
2131
2156
2200.3
2226.5
2214.7
2190
2170.7
2147
2126.4
2115.1
2088
2048.8
2016.5
1975.6
1950.4
1946
1921.2
1899.4
1886.6
1869.8
1866
1865.9
1857.3
1848.5
1874
1942
1992.3
2070.8
2330.3
2630.4
2634
2321.4
1960.3
1724
1544.3
1411
1412.8
1496.3
1616.1
1726.9
1762
1766
1770.2
1768.6
1763.4
1754
1754.2
1766
1773.6
1767.4
1764
1776.9
1785
1779.2
1785.5
1790
1782.4
1794.5
1800.1
1804.2
1831
1837.4
1832
1841.7
1858.4
1864
1862.1
1884.8
1906.2
1918.5
1942
1965.9
1990.6
1999.1
2016.3
2060
2086.9
2105.9
2119
2129
2144
2147.9
2148.3
2128.6
2113.1
2101
2050.8
2014.1
1983.5
1947.1
1926
1895.5
1872.1
1837.6
1795.6
1767
1739.6
1744.2
1742.7
1721.5
1717
1697.8
1672.4
1660.5
1656
1656
1660.3
1676.7
1686
1691
1706
1713.4
1725
1749.1
1753.4
1748
1741
1707.8
1696.6
1717.6
1698
1646.9
1610.5
1584
1554.6
1537
1527.5
1499.8
1466.3
1443.9
1431
1427.4
1421.2
1415
1433.4
1478
1528.1
1567
1630.5
1818
2088
2181.4
1989.1
1725.2
1563.4
1407
1218.3
1135.5
1157.6
1218.7
1310
1373.3
1393
1405.7
1411.6
1407
1405.7
1410.6
1413.8
1415
1412
1411.9
1423.6
1432.6
1431.3
1434
1445.3
1459.9
1475.7
1493.1
1504
1502.3
1504.5
1513.1
1503.1
1486
1493
1511.2
1521.1
1524.8
1539
1566.7
1583.6
1595.8
1620.5
1644
1665.2
1692.6
1716.7
1738.5
1759
1764.2
1765
1774.6
1770.1
1746
1725.7
1708.7
1684.4
1655.2
1625
1593.1
1561.7
1542.7
1526.9
1504
1485.2
1464.8
1440.7
1426.9
1432
1443.7
1442.6
1439.6
1436.2
1430
1434.1
1439.2
1449.3
1474
1503
1512.5
1499.5
1518.9
1564.9
1582
1579.9
1574
1565.9
1562.4
1561
1547.8
1514.1
1482.8
1461.7
1442
1424.1
1400.4
1381.4
1369.3
1354
1342.5
1339.5
1352.8
1358.4
1342
1358
1430.8
1506
1549
1664
1924.5
2106.1
1985.9
1738.8
1590
1449
1240.8
1103.8
1100.4
1169
1261.4
1324.7
1346.7
1364.6
1381
1383
1385.3
1396
1396.1
1384
1375.8
1365.6
1358.3
1382.2
1425
1445.1
1444
1445.2
1453
1461
1470.6
1481.7
1483.2
1490.4
1512
1528.4
1542
1556.7
1573.4
1593
1609.1
1631.2
1658.4
1676.6
1697
1725.2
1748.5
1774.1
1800.7
1824
1859.6
1894
1905.5
1905.3
1900
1885.8
1868.6
1846.4
1822.2
1807
1792
1767.2
1741.3
1727.2
1718
1695
1669.6
1666.3
1665.5
1645
1625
1621.6
1626.2
1617.8
1603
1601.9
1602.8
1612
1647.8
1676
1683.5
1690.2
1678.8
1690.6
1751
1788.6
1794.6
1789.1
1775.6
1770
1768.4
1763.8
1745.7
1708.5
1675
1657.2
1641.6
1621.2
1591.3
1568
1563.5
1554.4
1547.9
1552.8
1552
1556.1
1587.6
1660.9
1754.5
1802
1910.8
2187.8
2335.7
2194.3
1969
1795.8
1678.7
1508.2
1349.3
1334
1391
1486.8
1563.2
1582.3
1598
1605.9
1610.8
1617.4
1615
1622
1637.4
1640
1632.3
1627.5
1639
1665.7
1684
1697.1
1706.8
1704
1706.9
1718.5
1731.1
1752.9
1775
1780.1
1788.9
1817.3
1831.4
1833
1859.3
1889.4
1901.4
1923.3
1943
1952.6
1983.9
2008.2
2029.4
2076
2111.4
2134.2
2151.6
2163.6
2173
2167
2158
2147.1
2137.7
2126
2098.8
2077.2
2051.4
2022
1999
1972.4
1956.5
1933.3
1914.5
1921
1919.7
1918.4
1922.6
1924.1
1929
1915.9
1892.2
1896.8
1923.6
1953
1974.1
1971.1
1973.5
1995.1
2016
2043.2
2067.2
2075.2
2068.7
2057
2057.4
2066.6
2066.8
2040.2
1999
1972.4
1949.8
1921
1908.2
1905
1884.5
1862.7
1859.3
1866.1
1869
1863.6
1856.7
1875.9
1956.1
2062
2116.5
2218.1
2510.7
2744.9
2665
2417.2
2178
2012.1
1851
1694
1674.8
1742
1829.4
1914.8
1951
1967.1
1973.9
1976.4
1995.9
2006
1987.3
1981.7
2017.1
2045.1
2045
2049.2
2055
2056.2
2069.9
2085
2092.8
2101.3
2097.4
2100.7
2123
2135.1
2144.9
2153
2163
2183
2197.2
2217.4
2240.5
2260.7
2286
2305.5
2328.8
2363.4
2389.2
2408
2440.9
2479.8
2507.1
2531.3
2549
2552.8
2553.4
2541.5
2520.2
2505
2488.6
2470.1
2444.3
2413
2395
2376
2340.5
2317.5
2313.7
2313
2310.5
2297.2
2286.3
2275.3
2261
2257.4
2246.4
2238.6
2253.7
2265
2275.3
2292.8
2284.9
2275
2305
2340.8
2364.9
2393.4
2411.9
2413
2402.9
2381.7
2371.6
2370.1
2338
2292.2
2268.2
2248.2
2234
2224
2196.8
2174.8
2160.2
2153.9
2153
2145.1
2156.4
2152.8
2151.4
2219
2308.9
2361.7
2435.8
2686.8
2943
2885.1
2641
2395.9
2181.8
1997
1836.2
1807.9
1893.5
1991.2
2078
2120.8
2133.9
2141.3
2139.8
2137
2147.9
2166.1
2158.5
2148.5
2165
2181.4
2191.7
2195.4
2194.5
2201
2208.8
2221.6
2239.4
2250.2
2260
2269.9
2274.6
2294.2
2322.6
2345
2359.5
2358.9
2378.5
2406
2420
2447.6
2465.6
2484.6
2515
2539
2574.8
2611.7
2637
2650.5
2666
2691.3
2686
2665.4
2667.3
2654
2612.9
2589.8
2585.4
2567.9
2539
2509.3
2481.5
2459.6
2444.5
2428
2402.7
2379.4
2371.7
2369.8
2358
2346.8
2347
2346.2
2343
2352
2355.7
2343.3
2352.7
2378.6
2391
2402
2413.6
2432
2464.3
2484
2473.7
2453.4
2451.5
2454.3
2436
2405.8
2375
2343.2
2318.6
2294
2268.2
2255.1
2234.3
2219.9
2225
2218
2207.7
2200.1
2202.3
2214
2238.3
2314
2383.7
2428.3
2611
2889
2949
2749.3
2518.9
2352
2181.6
1997.2
1919.4
1964.2
2041
2123.8
2178.7
2187.5
2188.6
2189
2185
2194.4
2201.9
2202.5
2202
2196.2
2201.7
2203.9
2199.3
2213
2229.4
2239.1
2247.5
2249.1
2252
2256.5
2252.4
2258
2277.2
2300
2330.2
2349.1
2350.7
2356.3
2367
2378.5
2391.6
2403.2
2434.3
2474
2494
2519.1
2546.8
2575.9
2597
2599
2627.7
2649.7
2641.2
2628
2605.7
2598.5
2579.7
2538.6
2518
2501.7
2478.7
2455.9
2429.4
2410
2395.9
2373.2
2356.4
2353.5
2345
2330.9
2320.1
2309.3
2305.1
2309
2304.3
2290.3
2284.6
2293.6
2314
2331.1
2336.6
2347.3
2357.6
2362
2383.1
2404.8
2402.3
2397.8
2393
2385.4
2391.2
2375.4
2344.5
2321
2286.5
2266.5
2251.8
2232.2
2220
2193.5
2176.9
2181.5
2179.5
2175
2180.2
2186.6
2198.2
2247
2328
2385.2
2476.5
2714.3
2900.7
2816
2604.2
2432.5
2296.4
2120.3
1950
1914.3
1970.7
2045.7
2119.1
2156
2162.1
2163
2168.4
2167.9
2164
2168.2
2169.6
2171.6
2174.7
2177
2184.8
2188.3
2195.6
2203.1
2204
2210.3
2208.7
2205.8
2217
2236
2255.7
2263.8
2270.1
2286.4
2297
2302.1
2319.5
2343.3
2362.6
2382
2411.7
2446.6
2461.5
2475.3
2501
2523.7
2556.3
2577.9
2600.1
2637
2638.4
2615.9
2597.9
2576.2
2552
2531.2
2525.3
2522.4
2495
2460
2435.2
2401.6
2368.9
2346.8
2330
2329.1
2328.2
2312.7
2296.5
2286
2280.6
2277.6
2267.7
2259
2263
2268.8
2275.9
2291.5
2308.7
2316
2321.3
2333.7
2344.4
2371
2402
2396
2382.1
2386.4
2394.4
2405
2392.4
2343.7
2312.1
2306.8
2292
2274.4
2251.6
2214.3
2188.7
2179
2168.2
2164.4
2171.6
2172.2
2170
2194
2266.6
2357.5
2408.8
2529
2792.6
2938.7
2800.1
2559.3
2405
2276.2
2059
1884.3
1862.8
1935
2031
2080.5
2098.3
2111.5
2109
2120.2
2142.4
2151.7
2151.5
2146
2139.5
2136.1
2136.8
2140.7
2152
2167.1
2168.5
2159.7
2164.4
2185
2205.2
2217.7
2222.5
2226.4
2233
2247.3
2270.6
2281.2
2295.8
2322
2331.4
2343.8
2365.1
2384.5
2412
2438.5
2460.4
2486.7
2517.9
2544
2566.4
2594
2606.8
2599.9
2595
2587.9
2567.4
2540.4
2519.3
2498
2474.8
2455
2419.6
2383.9
2363
2337.8
2330.1
2337.7
2328.1
2316
2314.1
2304.8
2290.4
2290
2288
2272
2268.8
2278
2276.7
2274
2283
2292.6
2293.5
2296.9
2308
2321.6
2345.1
2379.7
2405
2398
2376.4
2379
2392.7
2389.3
2364
2322.5
2286.5
2259.8
2233.7
2210
2181
2154.7
2156.2
2158.7
2148
2145
2137.4
2129.6
2143.6
2198
2300
2388.8
2492.1
2764.3
2990
2865.3
2603.3
2391.6
2215
2045
1869
1826.3
1898.1
1972.9
2049
2094.5
2110.8
2112.3
2107.3
2112
2119.4
2125.3
2121
2109.9
2106
2116.8
2139.5
2146.8
2147.4
2154
2153.2
2153.6
2147.1
2162.1
2200
2209.4
2219.9
2236.8
2244.3
2256
2263.7
2277.2
2292.9
2309.3
2336
2354
2370.3
2400.5
2420.5
2438
2471
2491.6
2512.2
2543.2
2562
2575.5
2580.2
2574.3
2567.2
2558
2540.6
2512.6
2487.8
2457.4
2429
2416
2387.3
2357.1
2343.7
2323
2306.2
2296.4
2274.6
2260.4
2258
2249.5
2248.4
2245.3
2233.6
2232
2236.5
2243
2250
2273.8
2294
2280.4
2279.4
2300.2
2328.2
2360
2375.1
2380.9
2368.8
2348.3
2340
2323
2301.1
2279.9
2256.1
2228
2199.6
2188
2172.9
2146.8
2129
2114
2104.7
2101.1
2101
2108
2112.3
2134.9
2205.4
2276.7
2316
2476.9
2788.1
2901.5
2708.8
2456
2243.9
2064.2
1904.8
1805.3
1834
1927.9
2002.6
2060.2
2092.4
2093
2093.3
2093.4
2087.8
2083.2
2083
2089
2083.8
2076.4
2091.8
2107
2106.9
2110.9
2110.4
2114.3
2137
2150
2156.7
2172.1
2184.7
2193
2206.1
2218.4
2217.7
2229.5
2253
2262.5
2278.9
2300.8
2319.9
2354
2387.9
2410.3
2437.1
2464.5
2490
2516.5
2537.8
2561.5
2564.7
2550
2551.7
2537.1
2505.1
2480
2454
2432.5
2406
2368.6
2335.9
2313
2294.7
2275.5
2256.9
2244.3
2231
2216.4
2209
2196.4
2187.3
2189
2185.1
2184
2181
2174.3
2179
2187.1
2197.4
2213.6
2232.6
2239
2232.9
2242.8
2266.4
2294.4
2312
2299.2
2284.1
2278
2268.6
2255
2233.3
2210.4
2189.8
2170.3
2147
2120.1
2106.7
2095.1
2069
2051
2053.3
2059.4
2061.2
2054.9
2054
2102.8
2188.7
2243.4
2309.3
2532
2762.8
2693.5
2468.3
2319.6
2172
1987.6
1831.9
1770.9
1825.8
1917
1973
2005.1
2022
2027.1
2032
2031.1
2033.8
2033.7
2029.6
2026
2025
2038.6
2042.2
2042.3
2060
2067.4
2067.9
2072.2
2078.3
2090
2102
2115.8
2129.3
2143.1
2160
2170.5
2178.4
2195.3
2213.2
2229
2251.2
2271.3
2284.1
2304.5
2333
2358.8
2385.3
2414.5
2443.1
2466
2478.4
2482.8
2483
2489.5
2492
2470.7
2440
2407.7
2383.3
2364
2334.7
2303.9
2264.4
2245.1
2247
2218.6
2199.2
2209.2
2200.2
2180
2172.3
2166.8
2161.4
2155
2146
2143.5
2139.5
2134.3
2144
2162
2176.2
2186.6
2191.9
2197.1
2211
2236.9
2270.8
2288.1
2279.1
2256
2247.1
2265
2256.4
2214.2
2174
2135.7
2115.6
2102.5
2070
2043
2036.2
2034.7
2028.2
2011.8
2006
2010.6
1996.6
2020.2
2103.5
2188
2236.8
2321.5
2574.8
2763.1
2658
2462.7
2309.4
2176
1985.2
1791
1758
1806
1870.3
1949.6
1988
2000.7
1994.3
1982
1982.8
1983
1985.7
1990.9
1990.3
1991.2
1994
1996.5
2006
2012.4
2023.6
2043
2044.1
2040.3
2046.5
2049.9
2057
2069.3
2074
2083.8
2107.6
2127
2138.1
2153.4
2178.1
2204.3
2224
2239.2
2257.9
2284.9
2310
2336
2369.8
2392.4
2406.7
2432.6
2457
2463.1
2455.9
2443.4
2428.9
2400
2365.2
2354.4
2342.1
2317.1
2295
2265.5
2240.2
2218.9
2200.6
2191
2175.6
2160.5
2152.4
2151.9
2154
2138.4
2117
2116
2123.3
2122
2123.1
2123.8
2114
2127
2161
2175
2180.8
2181.9
2179.1
2204
2248
2262.3
2232.6
2224.6
2257
2270.9
2256.7
2222
2176.1
2137
2099.4
2076
2073.7
2062.1
2036
2016
2006.9
2007.6
2014.2
2004
1991.5
2023.4
2099.8
2195.1
2258
2354.8
2611.2
2810.4
2714.7
2461
2250.4
2095.6
1905.6
1743.7
1708
1760.7
1862.4
1939.8
1965.1
1972
1968.1
1988
2008.8
2007.4
2005
2000.1
2006.6
2012.6
2015.4
2030
2033.8
2028
2030.8
2043
2058
2066.9
2071.2
2075
2084.8
2104
2114.6
2111.1
2122.6
2145.5
2163
2178.5
2186.3
2201.8
2227.4
2252
2284.7
2315
2340.6
2365.1
2391
2419.3
2432.7
2450.1
2481.9
2500
2497.7
2486.6
2477.7
2463.1
2435
2409.3
2388.2
2363.7
2348.2
2331
2300.8
2278.8
2256.6
2236.6
2227
2205.8
2190.6
2192.6
2194.6
2202
2207
2193.3
2181.6
2180.1
2184
2191
2190.5
2208.5
2234.7
2237
2239.3
2258
2299.3
2338.9
2335
2312.2
2298.4
2281.1
2275.5
2268
2227.1
2195.3
2181.7
2156.2
2136
2120.9
2092.5
2063.3
2048.4
2041
2043.1
2046.7
2029.4
2023.4
2054
2109
2182.3
2242.8
2344.7
2605
2821.2
2702.2
2439.8
2271.8
2092
1882.4
1762.9
1751.1
1826.6
1931
1982.1
1998.9
2010.2
2014.3
2027
2029.3
2015
2014.2
2023.3
2029
2033.7
2030.5
2038.7
2052.4
2053
2056.4
2056.9
2060.9
2075.5
2077
2081.5
2111.6
2132.7
2130.1
2135
2151.3
2164.4
2172.2
2179.5
2196
2223.7
2250.8
2273
2302.2
2329
2345.2
2369.8
2399.2
2427.6
2455
2468.2
2477.8
2487.7
2480.5
2458
2429.7
2400
2376
2359.1
2340
2318.5
2294.8
2261.2
2233.5
2212
2190.4
2188.6
2182.1
2170.7
2169
2156
2151.2
2149.7
2139.3
2124
2103.9
2109.3
2121.4
2112.1
2110
2130.6
2161.3
2179.3
2181.2
2185
2197.7
2219.1
2244.5
2260.8
2260
2250.5
2243.1
2236.9
2228.3
2203
2161.6
2130.1
2106.7
2091.4
2076
2048.6
2032.6
2014.3
1992.7
1997
2004.8
2005
2002.1
2005.7
2049
2133
2197.4
2267.1
2495
2725
2657.5
2438.5
2276.7
2141.6
1965
1782.9
1729.6
1785.1
1863.9
1937
1963.9
1970
1977.6
1975.1
1977
1979.7
1970.2
1966.8
1981.9
1991
1994.7
2004
1992.4
1988.1
2015
2021.9
2014
2024
2036.7
2042
2045.9
2053.1
2066.7
2084.5
2094
2095.8
2106.4
2126.4
2147.5
2168
2189.2
2214.5
2241.5
2270.7
2296
2318.8
2349.3
2369.8
2398.7
2433
2438.7
2444.3
2438.9
2422
2410
2377.2
2349.6
2333
2310.7
2293
2275.4
2259.1
2234.7
2200.9
2176
2160.2
2150.8
2144.5
2133.9
2121
2116
2116.7
2111.5
2108.2
2110
2102.7
2097.6
2109.2
2121.3
2127
2139
2155.1
2165.9
2177
2184
2201.2
2239.1
2244.9
2233.1
2235
2222
2222.3
2227.1
2196.1
2157
2129.3
2105.3
2081
2063.9
2050
2027.6
2007.5
1997.3
2004.1
2010
2002.8
2005.8
2017.7
2071.1
2168
2216.5
2295.3
2552
2759.8
2684
2469.8
2293.6
2183.8
2012.4
1798
1734.8
1770.3
1831.2
1916.3
1968
1984.9
1980.8
1980.1
1983
1982
1986.8
1980.7
1984.6
1987.7
1971
1972.5
1980.8
1985.3
2002.4
2020
2030.1
2031.1
2027.6
2034.3
2049
2060
2066.9
2068.4
2078.5
2099
2114.1
2133.8
2154.1
2172.6
2199
2220.1
2237.7
2264.6
2297.4
2325
2343
2362
2387.2
2415.1
2438
2454.1
2460.8
2441.7
2408.8
2392
2378.9
2352.1
2324
2291.2
2260
2235.6
2197.2
2176.3
2181.1
2172
2154.2
2140.6
2138.6
2140.4
2127
2113.3
2112.8
2113.3
2107.5
2102
2092.5
2083.4
2095.4
2109.5
2120
2150.6
2167.5
2154.1
2158.6
2185
2212
2237.6
2237.1
2230.1
2230
2217.5
2221.5
2209.8
2156
2118
2104.1
2091.7
2074.4
2050.9
2026
2011.1
2006.3
1989.6
1977.5
1988
1996.5
1994.9
2014.1
2086.1
2178
2228.8
2346.7
2636.5
2801.6
2647
2405.7
2198.9
2014.6
1836.1
1687
1671.5
1752.3
1838.4
1903.8
1939
1950.9
1950.9
1958.9
1964.1
1961
1963.5
1959.5
1960.7
1969
1971
1979.9
1984.3
1981.4
1993.4
2001
1997
2008.6
2017.7
2023.9
2033
2028.8
2040.1
2059.5
2074.9
2096
2104.5
2118.5
2148.1
2171
2190
2218.6
2251.1
2271.6
2289.2
2310
2334.1
2369.6
2398.5
2423.3
2450
2450.7
2436.2
2426.9
2417
2395
2363.3
2338.7
2315.8
2291.7
2274
2249
2220.1
2203.5
2179.5
2152
2147.9
2143.2
2129.3
2128.3
2135
2131.7
2114.4
2103.9
2108.8
2107
2093.7
2090.6
2103.8
2118
2123
2130.1
2149.8
2161.3
2160.2
2171
2198.2
2218.7
2212.1
2205.3
2207
2197.8
2189.1
2162.1
2112.4
2084
2069.4
2046.9
2029
2010.9
1990
1978.9
1968.7
1959.9
1965.2
1965
1952.9
1959.9
2008.1
2077.8
2139
2212.2
2392
2649.2
2693.9
2466
2260.9
2126.4
1927.4
1744.7
1682
1716
1807
1883.4
1905.9
1916
1924.1
1922.3
1927.6
1949.1
1959
1943.8
1938.6
1945
1942.5
1946
1956.5
1954.8
1955.2
1969.1
1977
1980.9
1992.2
1996.7
1997.5
2011
2025.3
2031.3
2040.6
2056.6
2074
2091
2107.3
2126.4
2153.1
2172
2185.7
2219
2250.5
2272.2
2302
2329.8
2357.2
2384.8
2397.9
2397
2388.9
2377.1
2361.7
2342
2320
2296.1
2266.1
2231.7
2201.1
2175
2152
2137
2129
2116.2
2100
2085.4
2068.4
2058.5
2056.7
2053
2051.9
2052.3
2049
2045.1
2038
2033.5
2038.2
2038
2045.6
2077
2103.9
2112.4
2115.4
2120.3
2138
2161
2167.4
2167.2
2163
2147
2141.3
2144.1
2127.8
2094.7
2064
2040.5
2022
2008.1
1988.1
1960
1932.5
1917.8
1926.4
1934.6
1931
1935.6
1945.9
1989.9
2070.8
2134
2201.8
2390.2
2657.6
2679.3
2449
2289.6
2172.6
1988.4
1802.4
1681
1688.8
1778.4
1846.9
1885.8
1912
1915.9
1909
1905.3
1904.4
1904
1896.3
1894
1907.6
1925.7
1936
1934.9
1929.1
1929.4
1936.2
1942
1947.3
1957.4
1970.8
1981.4
1984
1982.9
1986.6
1994.1
2009.6
2039
2068.7
2085.5
2093.6
2105.3
2130
2161.9
2187.5
2209.5
2239.1
2263
2280.2
2307.3
2328
2351.2
2368
2351.6
2343.5
2336.9
2311.9
2292
2271.6
2250.1
2221.3
2193.2
2170
2144.3
2133.6
2114.7
2091.2
2087
2082.1
2082.1
2077
2062.7
2064
2050.4
2012.1
2011
2046.3
2051
2038.2
2052.2
2064.2
2063.9
2078
2094.2
2099.6
2105.6
2116.7
2138
2170.6
2194.4
2193.9
2181.7
2182
2190.1
2175.2
2135.5
2091.9
2056
2027.9
2002.6
1986.1
1975.4
1963
1945.4
1926.6
1928.8
1933.6
1923
1925.8
1956.3
2029.6
2117.2
2166
2275.5
2536.3
2739.3
2664.7
2424
2236.8
2107.8
1914.7
1722.1
1661
1699.4
1776
1849.3
1886.2
1898
1900.3
1900.4
1904.4
1910.7
1913
1908.2
1901.8
1903.3
1909.7
1910
1916.5
1940.9
1957.3
1954
1956
1971.5
1979.6
1972.3
1985.4
2007
2009.8
2027.9
2042.1
2046.9
2065
2075.7
2099.8
2135.8
2156.5
2176
2199.4
2222.5
2249
2283.6
2320
2349.8
2372.4
2385.1
2395.4
2410
2410
2391.1
2374.2
2354.1
2329
2313.5
2289.1
2249.9
2218.6
2196
2175.7
2158.7
2139.9
2121
2110
2101.2
2086.7
2070.6
2069.5
2075
2070.5
2065.7
2053.4
2045.3
2056
2056
2046.3
2052.8
2074.1
2095
2110
2121.5
2127.1
2134.2
2155
2179.9
2190.8
2186.6
2175.5
2168
2163.8
2149.4
2127.1
2095.7
2067
2049.8
2024.6
2010.4
1998.1
1971
1957.9
1946
1934.3
1947
1958
1952.3
1959.1
2005.6
2090.5
2159
2255.3
2496.8
2707.5
2646.6
2408
2200
2044.6
1849.1
1692.8
1674
1734.3
1830.6
1903
1927
1934
1923.9
1926.9
1940.8
1945.2
1950
1950.5
1952.4
1958.1
1964.3
1972
1973.6
1974.9
1984.3
1989.9
1992
2004
2022.8
2045.3
2059.1
2061
2067.8
2077.3
2089.2
2097.6
2106
2126.9
2145
2164.7
2186.1
2209
2244.9
2272.1
2303.6
2334.3
2370
2406.3
2382.4
2454.4
2408.8
2460
2526.1
2279.4
2688.3
1981.7
