68.815
60.815
62.815
58.815
48.815
70.815
55.815
58.815
60.815
59.815
53.815
42.815
48.815
45.815
50.815
49.815
53.815
49.815
39.815
27.815
34.815
39.815
32.815
52.815
40.815
43.815
40.815
37.815
15.815
22.815
14.815
39.815
40.815
30.815
32.815
39.815
19.815
25.815
27.815
29.815
28.815
34.815
30.815
20.815
19.815
7.8153
17.815
15.815
12.815
28.815
25.815
23.815
19.815
3.8153
7.8153
15.815
20.815
20.815
12.815
15.815
8.8153
5.8153
12.815
12.815
0.81528
27.815
30.815
24.815
14.815
17.815
9.8153
15.815
10.815
12.815
33.815
22.815
18.815
20.815
12.815
13.815
23.815
17.815
29.815
25.815
33.815
34.815
27.815
33.815
44.815
48.815
52.815
69.815
75.815
69.815
74.815
62.815
77.815
87.815
79.815
87.815
70.815
68.815
64.815
48.815
47.815
30.815
44.815
44.815
37.815
38.815
47.815
43.815
37.815
48.815
57.815
63.815
59.815
70.815
58.815
55.815
60.815
70.815
88.815
102.82
148.82
173.82
257.82
378.82
526.82
708.82
862.82
966.82
962.82
852.82
647.82
447.82
244.82
112.82
35.815
18.815
27.815
33.815
35.815
29.815
9.8153
0.81528
-11.185
-7.1847
-1.1847
3.8153
-14.185
-14.185
-19.185
-31.185
-34.185
-29.185
-31.185
-16.185
-24.185
-21.185
-30.185
-25.185
-44.185
-41.185
-21.185
-21.185
-25.185
-25.185
-35.185
-46.185
-45.185
-36.185
-31.185
-27.185
-24.185
-31.185
-41.185
-44.185
-36.185
-42.185
-22.185
-24.185
-31.185
-29.185
-19.185
-19.185
-27.185
-27.185
-19.185
-30.185
-17.185
-14.185
-26.185
-27.185
-21.185
-35.185
-21.185
-24.185
-12.185
-29.185
-12.185
-25.185
-6.1847
-14.185
-14.185
-25.185
-21.185
7.8153
5.8153
5.8153
22.815
33.815
37.815
55.815
45.815
73.815
70.815
69.815
80.815
84.815
77.815
99.815
80.815
96.815
84.815
86.815
87.815
86.815
65.815
70.815
78.815
69.815
67.815
73.815
63.815
62.815
57.815
48.815
55.815
59.815
54.815
60.815
58.815
60.815
49.815
47.815
53.815
49.815
47.815
40.815
53.815
42.815
52.815
30.815
30.815
27.815
32.815
43.815
39.815
30.815
32.815
18.815
9.8153
27.815
13.815
18.815
17.815
13.815
8.8153
10.815
4.8153
-1.1847
-0.18472
-0.18472
22.815
3.8153
4.8153
-6.1847
-2.1847
-7.1847
2.8153
15.815
5.8153
20.815
4.8153
-6.1847
-9.1847
-16.185
-6.1847
-7.1847
10.815
0.81528
5.8153
4.8153
-7.1847
-5.1847
-24.185
0.81528
4.8153
4.8153
7.8153
-4.1847
0.81528
-9.1847
-12.185
-12.185
-4.1847
-12.185
-0.18472
-7.1847
-24.185
-12.185
-19.185
-16.185
-11.185
0.81528
-6.1847
-4.1847
-31.185
-9.1847
-32.185
-6.1847
-14.185
-9.1847
-2.1847
-2.1847
-19.185
-27.185
-24.185
-19.185
-26.185
-17.185
-4.1847
-5.1847
-1.1847
-12.185
-22.185
-19.185
-11.185
-0.18472
3.8153
13.815
8.8153
12.815
3.8153
-6.1847
0.81528
13.815
19.815
40.815
40.815
35.815
40.815
39.815
44.815
48.815
38.815
40.815
40.815
37.815
20.815
23.815
-5.1847
-0.18472
15.815
-1.1847
9.8153
-4.1847
12.815
3.8153
5.8153
8.8153
17.815
8.8153
22.815
22.815
24.815
25.815
30.815
38.815
38.815
60.815
104.82
142.82
221.82
357.82
523.82
683.82
836.82
922.82
887.82
736.82
551.82
338.82
168.82
72.815
-1.1847
-14.185
-12.185
-0.18472
-1.1847
-1.1847
-26.185
-35.185
-36.185
-35.185
-47.185
-37.185
-39.185
-41.185
-50.185
-59.185
-59.185
-54.185
-57.185
-59.185
-54.185
-52.185
-70.185
-62.185
-69.185
-70.185
-64.185
-51.185
-54.185
-66.185
-64.185
-79.185
-69.185
-76.185
-72.185
-74.185
-64.185
-66.185
-59.185
-71.185
-64.185
-72.185
-74.185
-76.185
-65.185
-54.185
-62.185
-80.185
-71.185
-66.185
-65.185
-74.185
-49.185
-60.185
-60.185
-55.185
-71.185
-66.185
-66.185
-61.185
-66.185
-46.185
-47.185
-46.185
-74.185
-69.185
-69.185
-59.185
-65.185
-41.185
-44.185
-51.185
-52.185
-34.185
-41.185
-27.185
-24.185
-14.185
13.815
3.8153
13.815
20.815
20.815
30.815
37.815
49.815
50.815
45.815
38.815
40.815
33.815
40.815
39.815
32.815
43.815
44.815
25.815
23.815
12.815
12.815
28.815
30.815
20.815
24.815
23.815
23.815
27.815
12.815
12.815
20.815
24.815
20.815
30.815
23.815
19.815
17.815
10.815
3.8153
15.815
17.815
13.815
22.815
3.8153
-0.18472
-12.185
-5.1847
7.8153
-17.185
-6.1847
-7.1847
-0.18472
-22.185
-22.185
-24.185
-19.185
-19.185
-21.185
-15.185
-24.185
-25.185
-29.185
-26.185
-36.185
-41.185
-19.185
-32.185
-21.185
-41.185
-42.185
-35.185
-39.185
-22.185
-30.185
-10.185
-31.185
-31.185
-34.185
-42.185
-40.185
-31.185
-36.185
-27.185
-36.185
-29.185
-31.185
-41.185
-35.185
-54.185
-27.185
-15.185
-20.185
-41.185
-32.185
-35.185
-36.185
-36.185
-27.185
-26.185
-29.185
-27.185
-49.185
-24.185
-52.185
-37.185
-19.185
-26.185
-32.185
-27.185
-31.185
-34.185
-37.185
-32.185
-21.185
-19.185
-29.185
-24.185
-11.185
-36.185
-29.185
-41.185
-34.185
-16.185
-12.185
3.8153
0.81528
0.81528
-4.1847
0.81528
13.815
-0.18472
27.815
33.815
34.815
38.815
42.815
42.815
34.815
33.815
42.815
37.815
33.815
38.815
22.815
15.815
17.815
5.8153
0.81528
17.815
13.815
5.8153
9.8153
-2.1847
-7.1847
2.8153
23.815
18.815
18.815
24.815
24.815
22.815
8.8153
34.815
48.815
60.815
70.815
116.82
203.82
324.82
492.82
687.82
839.82
922.82
872.82
707.82
497.82
281.82
118.82
13.815
-17.185
-19.185
-4.1847
20.815
15.815
4.8153
-1.1847
-20.185
-41.185
-40.185
-37.185
-36.185
-41.185
-32.185
-40.185
-30.185
-51.185
-52.185
-55.185
-49.185
-46.185
-51.185
-57.185
-65.185
-67.185
-54.185
-65.185
-70.185
-51.185
-55.185
-57.185
-59.185
-66.185
-64.185
-55.185
-64.185
-56.185
-42.185
-61.185
-57.185
-76.185
-70.185
-65.185
-56.185
-52.185
-56.185
-51.185
-55.185
-55.185
-62.185
-62.185
-52.185
-59.185
-41.185
-44.185
-42.185
-60.185
-57.185
-56.185
-42.185
-60.185
-54.185
-52.185
-36.185
-56.185
-46.185
-52.185
-52.185
-61.185
-42.185
-39.185
-29.185
-40.185
-36.185
-35.185
-30.185
-20.185
-12.185
2.8153
22.815
25.815
14.815
19.815
40.815
43.815
59.815
65.815
70.815
70.815
54.815
43.815
49.815
54.815
63.815
68.815
60.815
63.815
54.815
50.815
30.815
45.815
43.815
50.815
55.815
54.815
40.815
43.815
33.815
29.815
43.815
33.815
47.815
44.815
49.815
35.815
25.815
37.815
38.815
27.815
52.815
25.815
27.815
25.815
18.815
22.815
13.815
29.815
20.815
39.815
28.815
9.8153
18.815
25.815
7.8153
-6.1847
-5.1847
-2.1847
12.815
-2.1847
13.815
-6.1847
-14.185
-7.1847
-9.1847
-2.1847
-6.1847
-2.1847
4.8153
-5.1847
-26.185
-7.1847
-10.185
-6.1847
-2.1847
-9.1847
-2.1847
-17.185
-5.1847
-10.185
2.8153
-7.1847
0.81528
4.8153
2.8153
-10.185
-11.185
-11.185
-10.185
-19.185
-7.1847
-9.1847
-14.185
-4.1847
-5.1847
-20.185
-20.185
-24.185
-2.1847
-5.1847
-2.1847
0.81528
-12.185
-15.185
-24.185
-17.185
-25.185
-0.18472
5.8153
-1.1847
-9.1847
-7.1847
-30.185
-31.185
0.81528
5.8153
4.8153
0.81528
-1.1847
4.8153
-0.18472
9.8153
19.815
27.815
33.815
48.815
50.815
45.815
47.815
43.815
52.815
49.815
40.815
40.815
40.815
20.815
13.815
8.8153
-4.1847
8.8153
7.8153
22.815
24.815
23.815
18.815
14.815
22.815
27.815
27.815
43.815
43.815
48.815
53.815
40.815
67.815
79.815
118.82
176.82
277.82
406.82
546.82
723.82
861.82
938.82
924.82
784.82
586.82
386.82
198.82
80.815
-0.18472
-22.185
-1.1847
-4.1847
-0.18472
5.8153
-16.185
-25.185
-36.185
-25.185
-52.185
-46.185
-45.185
-39.185
-39.185
-42.185
-59.185
-51.185
-42.185
-59.185
-47.185
-45.185
-47.185
-66.185
-52.185
-66.185
-61.185
-66.185
-59.185
-46.185
-62.185
-56.185
-56.185
-66.185
-67.185
-70.185
-59.185
-54.185
-55.185
-51.185
-49.185
-64.185
-55.185
-66.185
-50.185
-45.185
-46.185
-41.185
-46.185
-46.185
-46.185
-59.185
-65.185
-41.185
-37.185
-34.185
-45.185
-42.185
-54.185
-61.185
-42.185
-65.185
-39.185
-37.185
-47.185
-40.185
-39.185
-41.185
-47.185
-42.185
-19.185
-14.185
-1.1847
-6.1847
-2.1847
-11.185
15.815
20.815
40.815
45.815
58.815
58.815
52.815
49.815
50.815
63.815
63.815
78.815
65.815
55.815
53.815
43.815
49.815
44.815
45.815
52.815
54.815
39.815
33.815
32.815
24.815
32.815
43.815
32.815
52.815
47.815
30.815
32.815
22.815
29.815
23.815
20.815
25.815
39.815
29.815
18.815
14.815
7.8153
18.815
7.8153
15.815
20.815
32.815
14.815
0.81528
12.815
-1.1847
3.8153
3.8153
7.8153
3.8153
0.81528
13.815
-9.1847
-0.18472
-4.1847
-6.1847
2.8153
0.81528
8.8153
-14.185
-16.185
-5.1847
-2.1847
-16.185
-6.1847
-14.185
-12.185
-27.185
-9.1847
-10.185
-25.185
-11.185
-1.1847
-6.1847
-12.185
-10.185
-16.185
-32.185
-16.185
-10.185
-34.185
-6.1847
-12.185
-9.1847
-24.185
-25.185
-24.185
-25.185
-22.185
-21.185
-19.185
-27.185
-26.185
-21.185
-36.185
-25.185
-31.185
-26.185
-10.185
-14.185
-29.185
-20.185
-19.185
-35.185
-21.185
-22.185
-17.185
-31.185
-22.185
-25.185
-27.185
-15.185
-45.185
-26.185
-21.185
-17.185
-15.185
-7.1847
-10.185
-15.185
-7.1847
-9.1847
2.8153
4.8153
9.8153
5.8153
20.815
20.815
25.815
33.815
53.815
47.815
53.815
47.815
39.815
34.815
19.815
25.815
12.815
29.815
18.815
-1.1847
4.8153
-0.18472
4.8153
-14.185
14.815
13.815
18.815
22.815
14.815
22.815
22.815
33.815
30.815
32.815
52.815
57.815
73.815
94.815
142.82
216.82
349.82
488.82
663.82
819.82
933.82
939.82
849.82
664.82
456.82
267.82
107.82
23.815
-1.1847
-26.185
-12.185
-10.185
-2.1847
-16.185
-19.185
-27.185
-31.185
-42.185
-45.185
-46.185
-59.185
-55.185
-46.185
-40.185
-60.185
-50.185
-56.185
-61.185
-72.185
-64.185
-71.185
-65.185
-56.185
-66.185
-67.185
-80.185
-79.185
-74.185
-65.185
-70.185
-61.185
-65.185
-56.185
-64.185
-66.185
-62.185
-59.185
-67.185
-65.185
-62.185
-52.185
-60.185
-51.185
-65.185
-75.185
-57.185
-56.185
-61.185
-55.185
-47.185
-64.185
-61.185
-72.185
-57.185
-47.185
-61.185
-70.185
-55.185
-44.185
-69.185
-57.185
-72.185
-46.185
-55.185
-47.185
-52.185
-44.185
-42.185
-51.185
-26.185
-30.185
-6.1847
5.8153
27.815
19.815
38.815
20.815
27.815
48.815
43.815
67.815
52.815
68.815
53.815
52.815
45.815
40.815
34.815
52.815
49.815
40.815
44.815
22.815
33.815
24.815
20.815
39.815
44.815
37.815
32.815
30.815
15.815
17.815
29.815
30.815
33.815
29.815
19.815
17.815
24.815
9.8153
10.815
23.815
18.815
27.815
20.815
3.8153
4.8153
-6.1847
-5.1847
2.8153
4.8153
5.8153
-11.185
3.8153
-21.185
-15.185
-12.185
-7.1847
0.81528
2.8153
-9.1847
-10.185
-10.185
-26.185
-16.185
-21.185
-12.185
-21.185
0.81528
-21.185
-14.185
-21.185
-29.185
-24.185
-19.185
-16.185
-6.1847
-20.185
-22.185
-16.185
-21.185
-20.185
-29.185
-11.185
-11.185
-19.185
-9.1847
-24.185
-31.185
-32.185
-12.185
-17.185
-14.185
-9.1847
-30.185
-17.185
-40.185
-36.185
-31.185
-36.185
-14.185
-21.185
-12.185
-19.185
-27.185
-21.185
-19.185
-11.185
-16.185
-20.185
-14.185
-19.185
-12.185
-20.185
-15.185
-20.185
-9.1847
0.81528
-15.185
-11.185
-2.1847
-16.185
-14.185
-17.185
-19.185
-2.1847
18.815
12.815
9.8153
10.815
13.815
18.815
18.815
34.815
53.815
52.815
45.815
37.815
40.815
48.815
37.815
23.815
27.815
15.815
9.8153
8.8153
-5.1847
3.8153
-4.1847
-4.1847
-2.1847
5.8153
13.815
12.815
19.815
0.81528
24.815
12.815
24.815
32.815
45.815
52.815
39.815
39.815
45.815
78.815
139.82
194.82
318.82
448.82
604.82
753.82
872.82
908.82
847.82
698.82
492.82
307.82
152.82
50.815
-17.185
-16.185
0.81528
-1.1847
20.815
2.8153
-5.1847
-14.185
-35.185
-59.185
-36.185
-50.185
-37.185
-52.185
-50.185
-55.185
-60.185
-62.185
-60.185
-69.185
-64.185
-66.185
-55.185
-56.185
-54.185
-82.185
-70.185
-64.185
-62.185
-51.185
-57.185
-69.185
-67.185
-74.185
-79.185
-62.185
-59.185
-52.185
-59.185
-46.185
-66.185
-54.185
-69.185
-62.185
-60.185
-55.185
-47.185
-51.185
-51.185
-55.185
-50.185
-59.185
-41.185
-49.185
-42.185
-41.185
-44.185
-60.185
-57.185
-47.185
-74.185
-59.185
-67.185
-42.185
-57.185
-51.185
-56.185
-69.185
-61.185
-56.185
-46.185
-34.185
-31.185
-41.185
-30.185
-26.185
-12.185
-16.185
8.8153
20.815
34.815
43.815
49.815
50.815
45.815
43.815
44.815
63.815
59.815
52.815
48.815
53.815
47.815
42.815
33.815
49.815
37.815
43.815
25.815
38.815
25.815
24.815
28.815
29.815
40.815
44.815
43.815
27.815
30.815
19.815
14.815
28.815
33.815
32.815
25.815
28.815
17.815
15.815
3.8153
29.815
25.815
13.815
7.8153
12.815
0.81528
-16.185
7.8153
-6.1847
-6.1847
-1.1847
5.8153
-2.1847
-7.1847
-7.1847
-10.185
-11.185
-4.1847
5.8153
-1.1847
-9.1847
-9.1847
-0.18472
-11.185
-16.185
-14.185
-11.185
-5.1847
-9.1847
-10.185
-32.185
-34.185
-32.185
-29.185
-21.185
-14.185
-10.185
-11.185
-19.185
-41.185
-35.185
-26.185
-22.185
-19.185
-19.185
-25.185
-17.185
-32.185
-47.185
-35.185
-37.185
-21.185
-36.185
-25.185
-27.185
-22.185
-46.185
-39.185
-31.185
-25.185
-24.185
-31.185
-26.185
-27.185
-36.185
-40.185
-46.185
-26.185
-30.185
-32.185
-24.185
-20.185
-37.185
-30.185
-32.185
-30.185
-26.185
-15.185
-17.185
-25.185
-21.185
-27.185
-15.185
-6.1847
5.8153
9.8153
10.815
30.815
30.815
30.815
30.815
30.815
40.815
30.815
48.815
23.815
22.815
7.8153
-10.185
-17.185
-16.185
-16.185
-9.1847
-4.1847
-5.1847
-14.185
-15.185
-27.185
-12.185
0.81528
-2.1847
-5.1847
10.815
9.8153
10.815
-4.1847
12.815
8.8153
25.815
35.815
67.815
116.82
168.82
258.82
364.82
517.82
681.82
827.82
873.82
866.82
758.82
559.82
366.82
191.82
62.815
5.8153
-15.185
-29.185
-22.185
-24.185
-26.185
-31.185
-39.185
-36.185
-41.185
-49.185
-69.185
-67.185
-74.185
-77.185
-57.185
-65.185
-59.185
-69.185
-74.185
-94.185
-85.185
-87.185
-86.185
-87.185
-80.185
-71.185
-64.185
-80.185
-80.185
-81.185
-85.185
-86.185
-91.185
-61.185
-81.185
-80.185
-79.185
-89.185
-80.185
-76.185
-71.185
-74.185
-74.185
-81.185
-72.185
-84.185
-76.185
-69.185
-89.185
-65.185
-70.185
-67.185
-81.185
-76.185
-80.185
-65.185
-89.185
-52.185
-86.185
-65.185
-92.185
-82.185
-84.185
-87.185
-71.185
-76.185
-66.185
-76.185
-70.185
-74.185
-76.185
-80.185
-61.185
-52.185
-35.185
-36.185
-22.185
-16.185
-15.185
-7.1847
4.8153
5.8153
27.815
23.815
30.815
23.815
20.815
27.815
18.815
25.815
30.815
38.815
25.815
13.815
23.815
4.8153
13.815
-5.1847
7.8153
12.815
9.8153
13.815
-4.1847
-1.1847
3.8153
3.8153
-4.1847
4.8153
3.8153
-11.185
-1.1847
-5.1847
-16.185
-5.1847
-24.185
-25.185
-9.1847
-9.1847
-14.185
-24.185
-11.185
-29.185
-36.185
-26.185
-25.185
-22.185
-26.185
-45.185
-41.185
-39.185
-45.185
-39.185
-29.185
-29.185
-34.185
-50.185
-46.185
-47.185
-51.185
-46.185
-44.185
-42.185
-45.185
-47.185
-46.185
-59.185
-56.185
-49.185
-44.185
-39.185
-44.185
-51.185
-49.185
-71.185
-70.185
-64.185
-56.185
-50.185
-51.185
-46.185
-71.185
-65.185
-60.185
-64.185
-66.185
-45.185
-60.185
-55.185
-65.185
-59.185
-67.185
-70.185
-72.185
-60.185
-62.185
-66.185
-72.185
-67.185
-72.185
-76.185
-72.185
-72.185
-66.185
-47.185
-62.185
-61.185
-71.185
-85.185
-67.185
-69.185
-71.185
-54.185
-56.185
-67.185
-71.185
-77.185
-66.185
-61.185
-52.185
-67.185
-42.185
-50.185
-69.185
-62.185
-60.185
-61.185
-51.185
-37.185
-30.185
-24.185
-27.185
-34.185
-16.185
-10.185
-5.1847
-1.1847
15.815
18.815
0.81528
-7.1847
-15.185
-11.185
-35.185
-24.185
-25.185
-24.185
-37.185
-47.185
-25.185
-46.185
-49.185
-42.185
-50.185
-30.185
-31.185
-30.185
-35.185
-36.185
-39.185
-16.185
-9.1847
-6.1847
-1.1847
17.815
10.815
39.815
72.815
157.82
281.82
442.82
613.82
791.82
884.82
843.82
708.82
499.82
289.82
129.82
5.8153
-41.185
-62.185
-60.185
-51.185
-52.185
-56.185
-72.185
-62.185
-66.185
-81.185
-95.185
-116.18
-122.18
-86.185
-102.18
-91.185
-101.18
-101.18
-120.18
-117.18
-117.18
-127.18
-112.18
-109.18
-104.18
-100.18
-102.18
-116.18
-126.18
-112.18
-104.18
-121.18
-111.18
-125.18
-114.18
-121.18
-114.18
-112.18
-115.18
-109.18
-99.185
-102.18
-100.18
-105.18
-116.18
-115.18
-114.18
-116.18
-95.185
-97.185
-99.185
-99.185
-106.18
-114.18
-121.18
-115.18
-101.18
-99.185
-102.18
-117.18
-111.18
-106.18
-116.18
-121.18
-109.18
-101.18
-101.18
-110.18
-116.18
-117.18
-105.18
-109.18
-104.18
-76.185
-85.185
-89.185
-66.185
-57.185
-56.185
-47.185
-29.185
-32.185
-7.1847
-5.1847
-4.1847
-4.1847
-7.1847
5.8153
9.8153
5.8153
9.8153
4.8153
-0.18472
7.8153
-5.1847
-14.185
-0.18472
-10.185
3.8153
-10.185
-9.1847
-21.185
-14.185
-17.185
-14.185
-6.1847
-9.1847
-7.1847
-2.1847
-22.185
-19.185
-26.185
-15.185
-22.185
-19.185
-12.185
-20.185
-27.185
-32.185
-39.185
-29.185
-36.185
-35.185
-31.185
-16.185
-34.185
-37.185
-40.185
-45.185
-50.185
-59.185
-57.185
-31.185
-35.185
-52.185
-49.185
-49.185
-66.185
-52.185
-45.185
-50.185
-51.185
-52.185
-52.185
-60.185
-67.185
-74.185
-56.185
-56.185
-54.185
-59.185
-55.185
-67.185
-81.185
-56.185
-74.185
-59.185
-64.185
-55.185
-65.185
-62.185
-77.185
-74.185
-71.185
-67.185
-66.185
-80.185
-64.185
-79.185
-76.185
-94.185
-75.185
-69.185
-67.185
-61.185
-57.185
-66.185
-82.185
-74.185
-74.185
-77.185
-70.185
-65.185
-60.185
-71.185
-62.185
-81.185
-70.185
-80.185
-52.185
-50.185
-61.185
-59.185
-46.185
-71.185
-74.185
-69.185
-60.185
-61.185
-59.185
-41.185
-41.185
-42.185
-51.185
-51.185
-35.185
-16.185
-11.185
-2.1847
-2.1847
9.8153
-0.18472
-0.18472
3.8153
8.8153
-4.1847
-12.185
-12.185
-26.185
-27.185
-29.185
-46.185
-22.185
-37.185
-56.185
-29.185
-39.185
-46.185
-41.185
-31.185
-21.185
-22.185
-9.1847
-12.185
-19.185
-22.185
-14.185
-7.1847
3.8153
24.815
44.815
102.82
168.82
279.82
429.82
626.82
802.82
922.82
966.82
863.82
679.82
447.82
251.82
75.815
-9.1847
-52.185
-52.185
-54.185
-45.185
-37.185
-57.185
-49.185
-79.185
-71.185
-81.185
-66.185
-76.185
-80.185
-81.185
-101.18
-107.18
-91.185
-97.185
-109.18
-94.185
-105.18
-110.18
-100.18
-107.18
-120.18
-104.18
-97.185
-97.185
-105.18
-112.18
-115.18
-115.18
-122.18
-124.18
-115.18
-112.18
-110.18
-107.18
-105.18
-125.18
-117.18
-109.18
-106.18
-99.185
-116.18
-96.185
-110.18
-115.18
-105.18
-95.185
-92.185
-100.18
-82.185
-82.185
-87.185
-100.18
-105.18
-107.18
-112.18
-99.185
-81.185
-86.185
-96.185
-90.185
-101.18
-99.185
-110.18
-96.185
-95.185
-92.185
-96.185
-95.185
-91.185
-102.18
-95.185
-84.185
-70.185
-64.185
-44.185
-59.185
-51.185
-26.185
-21.185
-11.185
-9.1847
7.8153
17.815
10.815
15.815
-2.1847
3.8153
20.815
3.8153
14.815
8.8153
8.8153
4.8153
-7.1847
-14.185
-1.1847
-7.1847
14.815
4.8153
-6.1847
-4.1847
-17.185
-22.185
-29.185
-7.1847
-10.185
-0.18472
-5.1847
-6.1847
-20.185
-27.185
-25.185
-14.185
-4.1847
-6.1847
-10.185
-11.185
-30.185
-26.185
-35.185
-31.185
-31.185
-19.185
-35.185
-31.185
-24.185
-47.185
-47.185
-45.185
-35.185
-45.185
-34.185
-36.185
-47.185
-52.185
-51.185
-51.185
-61.185
-49.185
-54.185
-52.185
-40.185
-54.185
-57.185
-69.185
-67.185
-65.185
-67.185
-76.185
-67.185
-67.185
-71.185
-74.185
-75.185
-74.185
-76.185
-45.185
-67.185
-46.185
-79.185
-74.185
-79.185
-69.185
-79.185
-61.185
-74.185
-56.185
-74.185
-77.185
-89.185
-79.185
-62.185
-65.185
-69.185
-60.185
-70.185
-67.185
-74.185
-82.185
-75.185
-61.185
-72.185
-66.185
-77.185
-57.185
-89.185
-84.185
-67.185
-81.185
-67.185
-47.185
-72.185
-59.185
-70.185
-75.185
-59.185
-59.185
-47.185
-44.185
-42.185
-40.185
-50.185
-39.185
-31.185
-21.185
-16.185
-9.1847
-2.1847
5.8153
3.8153
-14.185
-17.185
-19.185
-11.185
-19.185
-21.185
-41.185
-44.185
-39.185
-52.185
-61.185
-54.185
-31.185
-40.185
-50.185
-30.185
-37.185
-49.185
-44.185
-39.185
-30.185
-12.185
-14.185
-29.185
-25.185
-27.185
-9.1847
5.8153
34.815
107.82
209.82
317.82
471.82
649.82
788.82
837.82
774.82
607.82
392.82
188.82
47.815
-42.185
-85.185
-79.185
-56.185
-55.185
-32.185
-44.185
-52.185
-70.185
-71.185
-101.18
-90.185
-101.18
-90.185
-79.185
-94.185
-115.18
-92.185
-101.18
-101.18
-106.18
-92.185
-101.18
-102.18
-101.18
-96.185
-115.18
-104.18
-97.185
-102.18
-92.185
-105.18
-111.18
-117.18
-115.18
-106.18
-105.18
-115.18
-100.18
-102.18
-99.185
-86.185
-105.18
-101.18
-102.18
-99.185
-85.185
-96.185
-94.185
-106.18
-96.185
-111.18
-114.18
-99.185
-80.185
-85.185
-84.185
-90.185
-100.18
-97.185
-104.18
-99.185
-105.18
-99.185
-96.185
-84.185
-94.185
-102.18
-102.18
-95.185
-92.185
-81.185
-87.185
-65.185
-64.185
-75.185
-61.185
-62.185
-30.185
-22.185
-15.185
-4.1847
8.8153
17.815
-0.18472
14.815
14.815
19.815
34.815
19.815
13.815
12.815
-0.18472
0.81528
2.8153
8.8153
5.8153
13.815
4.8153
0.81528
-9.1847
-20.185
-12.185
-10.185
-2.1847
-5.1847
0.81528
4.8153
-6.1847
-26.185
-11.185
-12.185
-20.185
-17.185
-12.185
-7.1847
-27.185
-25.185
-39.185
-39.185
-27.185
-12.185
-7.1847
-31.185
-35.185
-42.185
-35.185
-36.185
-31.185
-27.185
-30.185
-31.185
-40.185
-40.185
-42.185
-46.185
-35.185
-35.185
-44.185
-52.185
-60.185
-61.185
-69.185
-70.185
-51.185
-61.185
-49.185
-50.185
-52.185
-57.185
-56.185
-75.185
-72.185
-65.185
-64.185
-56.185
-64.185
-57.185
-65.185
-61.185
-69.185
-61.185
-67.185
-70.185
-61.185
-74.185
-81.185
-75.185
-70.185
-67.185
-66.185
-66.185
-41.185
-66.185
-67.185
-54.185
-82.185
-71.185
-79.185
-60.185
-60.185
-55.185
-67.185
-71.185
-76.185
-81.185
-82.185
-54.185
-74.185
-70.185
-65.185
-67.185
-71.185
-86.185
-76.185
-84.185
-70.185
-59.185
-69.185
-66.185
-77.185
-72.185
-76.185
-57.185
-61.185
-41.185
-51.185
-47.185
-49.185
-51.185
-49.185
-40.185
-40.185
-15.185
-11.185
-12.185
-11.185
-14.185
-11.185
-10.185
-20.185
-10.185
-4.1847
-7.1847
-20.185
-40.185
-35.185
-44.185
-55.185
-34.185
-49.185
-36.185
-42.185
-54.185
-51.185
-37.185
-34.185
-49.185
-21.185
-16.185
-20.185
-15.185
-21.185
-21.185
-6.1847
4.8153
39.815
83.815
157.82
284.82
468.82
647.82
802.82
857.82
777.82
593.82
366.82
158.82
14.815
-71.185
-84.185
-72.185
-69.185
-51.185
-49.185
-62.185
-76.185
-90.185
-100.18
-105.18
-95.185
-86.185
-97.185
-105.18
-101.18
-114.18
-112.18
-105.18
-112.18
-99.185
-99.185
-109.18
-115.18
-101.18
-114.18
-122.18
-102.18
-99.185
-114.18
-101.18
-105.18
-122.18
-115.18
-117.18
-112.18
-109.18
-110.18
-104.18
-100.18
-106.18
-112.18
-125.18
-102.18
-116.18
-101.18
-96.185
-102.18
-115.18
-102.18
-112.18
-114.18
-114.18
-105.18
-105.18
-94.185
-105.18
-106.18
-116.18
-111.18
-120.18
-99.185
-99.185
-100.18
-102.18
-106.18
-106.18
-96.185
-94.185
-91.185
-86.185
-67.185
-65.185
-65.185
-45.185
-46.185
-40.185
-17.185
-17.185
-19.185
5.8153
7.8153
8.8153
3.8153
-5.1847
-2.1847
3.8153
4.8153
-0.18472
5.8153
-6.1847
-10.185
-7.1847
-26.185
-29.185
-0.18472
-5.1847
-10.185
-11.185
-16.185
-19.185
-31.185
-26.185
-25.185
-17.185
-35.185
-14.185
-19.185
-31.185
-50.185
-24.185
-32.185
-26.185
-31.185
-16.185
-22.185
-22.185
-41.185
-49.185
-35.185
-25.185
-34.185
-37.185
-37.185
-42.185
-57.185
-59.185
-55.185
-61.185
-45.185
-41.185
-51.185
-56.185
-61.185
-60.185
-67.185
-56.185
-57.185
-56.185
-57.185
-72.185
-70.185
-59.185
-64.185
-76.185
-55.185
-62.185
-61.185
-64.185
-74.185
-79.185
-80.185
-69.185
-71.185
-66.185
-67.185
-76.185
-70.185
-74.185
-76.185
-69.185
-79.185
-80.185
-65.185
-76.185
-75.185
-90.185
-79.185
-76.185
-71.185
-75.185
-61.185
-80.185
-66.185
-79.185
-56.185
-81.185
-72.185
-57.185
-76.185
-61.185
-69.185
-79.185
-80.185
-71.185
-67.185
-72.185
-67.185
-69.185
-72.185
-67.185
-81.185
-85.185
-74.185
-72.185
-74.185
-62.185
-65.185
-59.185
-67.185
-61.185
-79.185
-56.185
-52.185
-57.185
-52.185
-46.185
-52.185
-40.185
-46.185
-34.185
-41.185
-29.185
-9.1847
4.8153
-21.185
8.8153
-6.1847
-7.1847
0.81528
-11.185
10.815
2.8153
3.8153
-20.185
-10.185
-22.185
-34.185
-25.185
-24.185
-37.185
-31.185
-31.185
-40.185
-42.185
-22.185
-31.185
-21.185
-5.1847
0.81528
-7.1847
-10.185
-4.1847
7.8153
14.815
67.815
111.82
217.82
349.82
522.82
717.82
876.82
948.82
908.82
754.82
522.82
308.82
137.82
14.815
-31.185
-44.185
-31.185
-29.185
-10.185
-17.185
-40.185
-47.185
-52.185
-67.185
-76.185
-49.185
-55.185
-81.185
-66.185
-76.185
-86.185
-81.185
-91.185
-82.185
-87.185
-79.185
-82.185
-85.185
-86.185
-106.18
-97.185
-86.185
-82.185
-79.185
-87.185
-92.185
-91.185
-81.185
-94.185
-84.185
-86.185
-75.185
-81.185
-86.185
-81.185
-80.185
-86.185
-85.185
-82.185
-75.185
-75.185
-75.185
-67.185
-86.185
-87.185
-86.185
-77.185
-76.185
-69.185
-67.185
-80.185
-81.185
-94.185
-90.185
-89.185
-81.185
-84.185
-70.185
-74.185
-80.185
-77.185
-80.185
-67.185
-56.185
-59.185
-61.185
-45.185
-54.185
-50.185
-30.185
-37.185
-16.185
8.8153
29.815
33.815
32.815
32.815
34.815
44.815
35.815
40.815
55.815
38.815
49.815
39.815
33.815
32.815
29.815
30.815
27.815
28.815
40.815
20.815
22.815
24.815
19.815
24.815
32.815
37.815
23.815
24.815
28.815
13.815
14.815
8.8153
24.815
14.815
33.815
17.815
7.8153
17.815
0.81528
0.81528
14.815
7.8153
18.815
20.815
3.8153
-6.1847
-2.1847
-1.1847
2.8153
-2.1847
14.815
3.8153
-4.1847
-7.1847
-5.1847
-7.1847
-14.185
7.8153
-2.1847
2.8153
-4.1847
-12.185
-24.185
-16.185
-14.185
-14.185
-5.1847
-12.185
-7.1847
-24.185
-39.185
-21.185
-17.185
-21.185
-9.1847
-7.1847
-14.185
-10.185
-31.185
-32.185
-16.185
-21.185
-20.185
-21.185
-19.185
-31.185
-34.185
-29.185
-27.185
-26.185
-36.185
-14.185
-19.185
-27.185
-32.185
-29.185
-32.185
-15.185
-6.1847
-21.185
-21.185
-25.185
-22.185
-24.185
-26.185
-30.185
-22.185
-12.185
-17.185
-15.185
-15.185
-5.1847
-14.185
-6.1847
-0.18472
0.81528
-6.1847
7.8153
13.815
4.8153
8.8153
7.8153
24.815
25.815
37.815
38.815
47.815
39.815
49.815
40.815
45.815
58.815
42.815
37.815
39.815
33.815
19.815
3.8153
4.8153
3.8153
0.81528
10.815
24.815
18.815
-4.1847
23.815
7.8153
20.815
23.815
30.815
40.815
33.815
49.815
47.815
59.815
73.815
101.82
134.82
237.82
378.82
549.82
728.82
872.82
921.82
853.82
683.82
459.82
262.82
112.82
20.815
-11.185
-21.185
7.8153
7.8153
15.815
14.815
-2.1847
-5.1847
-24.185
-30.185
-41.185
-31.185
-15.185
-26.185
-34.185
-35.185
-31.185
-50.185
-40.185
-49.185
-45.185
-34.185
-26.185
-40.185
-42.185
-61.185
-51.185
-44.185
-29.185
-44.185
-37.185
-45.185
-41.185
-62.185
-51.185
-44.185
-44.185
-42.185
-39.185
-31.185
-46.185
-49.185
-45.185
-52.185
-39.185
-31.185
-36.185
-36.185
-45.185
-59.185
-50.185
-44.185
-42.185
-52.185
-36.185
-19.185
-24.185
-29.185
-39.185
-36.185
-51.185
-34.185
-35.185
-30.185
-37.185
-35.185
-37.185
-40.185
-20.185
-24.185
-27.185
-7.1847
-22.185
-6.1847
-1.1847
0.81528
3.8153
18.815
39.815
44.815
52.815
64.815
60.815
65.815
59.815
72.815
65.815
78.815
74.815
86.815
74.815
73.815
59.815
52.815
62.815
55.815
57.815
55.815
60.815
52.815
42.815
29.815
58.815
59.815
45.815
62.815
43.815
45.815
38.815
38.815
34.815
47.815
44.815
48.815
39.815
32.815
37.815
35.815
28.815
33.815
42.815
42.815
39.815
28.815
27.815
10.815
19.815
5.8153
22.815
24.815
25.815
14.815
19.815
2.8153
4.8153
2.8153
9.8153
13.815
18.815
15.815
-2.1847
4.8153
-6.1847
0.81528
-2.1847
9.8153
15.815
8.8153
5.8153
-1.1847
-5.1847
-15.185
-14.185
-4.1847
0.81528
7.8153
10.815
-12.185
-10.185
-11.185
-0.18472
-14.185
4.8153
-0.18472
-1.1847
0.81528
-7.1847
-20.185
-9.1847
-2.1847
-15.185
-5.1847
-7.1847
-6.1847
-19.185
-29.185
-14.185
-16.185
-21.185
5.8153
8.8153
-1.1847
-7.1847
-10.185
-20.185
-17.185
-4.1847
4.8153
-11.185
-5.1847
-6.1847
-29.185
-16.185
-11.185
-5.1847
-4.1847
-12.185
-9.1847
3.8153
-9.1847
-9.1847
3.8153
3.8153
-0.18472
13.815
28.815
25.815
22.815
24.815
13.815
38.815
43.815
57.815
58.815
55.815
58.815
55.815
40.815
54.815
48.815
37.815
47.815
40.815
40.815
28.815
23.815
-1.1847
12.815
3.8153
15.815
12.815
22.815
15.815
23.815
5.8153
19.815
37.815
45.815
54.815
63.815
55.815
63.815
89.815
109.82
153.82
253.82
397.82
583.82
782.82
954.82
1023.8
1013.8
866.82
647.82
422.82
239.82
108.82
30.815
4.8153
2.8153
2.8153
-1.1847
15.815
14.815
-9.1847
-9.1847
-15.185
-45.185
-41.185
-49.185
-44.185
-30.185
-41.185
-51.185
-46.185
-79.185
-52.185
-57.185
-57.185
-37.185
-41.185
-42.185
-50.185
-66.185
-52.185
-54.185
-67.185
-56.185
-66.185
-40.185
-49.185
-50.185
-70.185
-65.185
-54.185
-49.185
-50.185
-49.185
-49.185
-61.185
-49.185
-62.185
-65.185
-52.185
-44.185
-44.185
-50.185
-54.185
-56.185
-51.185
-57.185
-56.185
-42.185
-45.185
-46.185
-55.185
-45.185
-69.185
-76.185
-55.185
-60.185
-67.185
-49.185
-57.185
-56.185
-65.185
-67.185
-54.185
-61.185
-52.185
-36.185
-51.185
-31.185
-32.185
-32.185
-16.185
-14.185
9.8153
25.815
28.815
39.815
35.815
28.815
45.815
38.815
47.815
60.815
52.815
52.815
45.815
32.815
23.815
29.815
37.815
25.815
34.815
38.815
28.815
25.815
19.815
25.815
27.815
25.815
23.815
33.815
17.815
42.815
13.815
5.8153
18.815
27.815
17.815
44.815
13.815
14.815
0.81528
10.815
0.81528
4.8153
13.815
22.815
25.815
12.815
-7.1847
-2.1847
-9.1847
5.8153
12.815
-6.1847
-1.1847
-14.185
-14.185
-20.185
-29.185
-27.185
-16.185
-19.185
-16.185
-25.185
-12.185
-30.185
-25.185
-27.185
-22.185
-17.185
-26.185
-20.185
-34.185
-36.185
-34.185
-51.185
-26.185
-29.185
-16.185
-9.1847
-31.185
-37.185
-37.185
-36.185
-30.185
-21.185
-15.185
-29.185
-21.185
-29.185
-36.185
-40.185
-24.185
-21.185
-31.185
-20.185
-26.185
-37.185
-36.185
-37.185
-35.185
-17.185
-21.185
-21.185
-19.185
-22.185
-36.185
-34.185
-36.185
-30.185
-21.185
-11.185
-21.185
-26.185
-26.185
-29.185
-39.185
-34.185
-17.185
-21.185
-30.185
-16.185
-27.185
-19.185
-22.185
-32.185
-30.185
-10.185
-11.185
-15.185
-21.185
-15.185
-29.185
-14.185
-12.185
-2.1847
3.8153
0.81528
-2.1847
12.815
-11.185
15.815
8.8153
28.815
30.815
49.815
37.815
64.815
38.815
43.815
42.815
34.815
53.815
54.815
40.815
22.815
14.815
13.815
-0.18472
7.8153
17.815
20.815
20.815
5.8153
15.815
25.815
7.8153
24.815
35.815
37.815
54.815
68.815
92.815
122.82
192.82
313.82
467.82
633.82
808.82
939.82
986.82
929.82
781.82
588.82
379.82
218.82
126.82
58.815
29.815
20.815
24.815
12.815
20.815
13.815
-0.18472
-0.18472
-24.185
-11.185
-27.185
-37.185
-40.185
-34.185
-27.185
-26.185
-36.185
-42.185
-36.185
-51.185
-52.185
-47.185
-50.185
-45.185
-47.185
-36.185
-52.185
-47.185
-57.185
-59.185
-45.185
-45.185
-50.185
-39.185
-56.185
-56.185
-66.185
-49.185
-52.185
-49.185
-46.185
-27.185
-42.185
-45.185
-42.185
-46.185
-31.185
-34.185
-25.185
-31.185
-26.185
-34.185
-44.185
-46.185
-36.185
-36.185
-45.185
-19.185
-26.185
-51.185
-45.185
-31.185
-26.185
-50.185
-14.185
-20.185
-12.185
-19.185
-26.185
-16.185
-11.185
-4.1847
17.815
28.815
40.815
55.815
78.815
68.815
109.82
137.82
158.82
191.82
231.82
266.82
316.82
356.82
433.82
499.82
548.82
633.82
686.82
721.82
766.82
772.82
763.82
738.82
699.82
642.82
586.82
511.82
458.82
423.82
397.82
379.82
373.82
352.82
331.82
277.82
228.82
172.82
107.82
69.815
28.815
-4.1847
-21.185
-32.185
-59.185
-92.185
-120.18
-151.18
-166.18
-169.18
-187.18
-186.18
-210.18
-216.18
-212.18
-222.18
-227.18
-235.18
-241.18
-235.18
-246.18
-245.18
-241.18
-264.18
-276.18
-265.18
-269.18
-241.18
-224.18
-206.18
-197.18
-196.18
-202.18
-195.18
-191.18
-166.18
-147.18
-157.18
-139.18
-136.18
-125.18
-92.185
-71.185
-37.185
-5.1847
17.815
49.815
67.815
98.815
129.82
172.82
192.82
246.82
297.82
337.82
349.82
382.82
394.82
391.82
366.82
333.82
304.82
256.82
181.82
139.82
92.815
39.815
13.815
-31.185
-72.185
-111.18
-140.18
-185.18
-214.18
-244.18
-266.18
-251.18
-252.18
-241.18
-251.18
-259.18
-257.18
-276.18
-270.18
-275.18
-259.18
-262.18
-254.18
-262.18
-250.18
-234.18
-236.18
-225.18
-187.18
-174.18
-156.18
-134.18
-125.18
-102.18
-81.185
-59.185
-34.185
-4.1847
29.815
69.815
99.815
134.82
167.82
201.82
243.82
287.82
318.82
329.82
342.82
328.82
316.82
264.82
241.82
206.82
174.82
136.82
106.82
63.815
5.8153
-34.185
-87.185
-124.18
-175.18
-210.18
-255.18
-291.18
-325.18
-356.18
-370.18
-380.18
-370.18
-354.18
-365.18
-349.18
-326.18
-327.18
-340.18
-312.18
-311.18
-302.18
-294.18
-276.18
-259.18
-244.18
-227.18
-197.18
-181.18
-152.18
-140.18
-114.18
-94.185
-65.185
-55.185
-10.185
38.815
77.815
124.82
186.82
239.82
263.82
288.82
319.82
346.82
356.82
353.82
327.82
301.82
267.82
241.82
206.82
199.82
169.82
143.82
97.815
63.815
9.8153
-65.185
-120.18
-187.18
-226.18
-272.18
-311.18
-324.18
-349.18
-362.18
-360.18
-355.18
-355.18
-329.18
-311.18
-301.18
-315.18
-300.18
-302.18
-296.18
-272.18
-267.18
-234.18
-214.18
-202.18
-175.18
-150.18
-124.18
-95.185
-76.185
-32.185
-12.185
32.815
60.815
121.82
129.82
182.82
233.82
278.82
307.82
327.82
341.82
331.82
311.82
299.82
273.82
236.82
218.82
187.82
162.82
151.82
114.82
73.815
63.815
27.815
-10.185
-44.185
-82.185
-145.18
-176.18
-225.18
-270.18
-289.18
-326.18
-337.18
-365.18
-365.18
-367.18
-369.18
-366.18
-352.18
-334.18
-325.18
-310.18
-287.18
-281.18
-272.18
-251.18
-215.18
-191.18
-144.18
-107.18
-57.185
-19.185
30.815
68.815
112.82
163.82
202.82
253.82
277.82
323.82
344.82
359.82
383.82
374.82
371.82
352.82
326.82
293.82
257.82
226.82
181.82
161.82
123.82
98.815
44.815
-5.1847
-65.185
-120.18
-187.18
-214.18
-244.18
-301.18
-326.18
-375.18
-429.18
-474.18
-497.18
-520.18
-527.18
-516.18
-505.18
-489.18
-471.18
-467.18
-456.18
-432.18
-395.18
-369.18
-336.18
-286.18
-251.18
-212.18
-166.18
-132.18
-71.185
-25.185
44.815
108.82
169.82
232.82
286.82
329.82
373.82
398.82
407.82
431.82
434.82
392.82
377.82
338.82
299.82
256.82
219.82
189.82
149.82
92.815
28.815
-49.185
-127.18
-184.18
-241.18
-282.18
-307.18
-329.18
-347.18
-369.18
-381.18
-377.18
-379.18
-395.18
-364.18
-335.18
-336.18
-319.18
-291.18
-297.18
-286.18
-250.18
-229.18
-202.18
-157.18
-131.18
-99.185
-67.185
-40.185
10.815
62.815
109.82
179.82
237.82
288.82
347.82
401.82
452.82
508.82
559.82
613.82
612.82
617.82
611.82
559.82
513.82
454.82
393.82
348.82
302.82
264.82
212.82
152.82
99.815
22.815
-34.185
-90.185
-174.18
-217.18
-279.18
-355.18
-401.18
-434.18
-467.18
-480.18
-465.18
-465.18
-462.18
-444.18
-456.18
-445.18
-432.18
-414.18
-409.18
-396.18
-384.18
-354.18
-346.18
-314.18
-285.18
-240.18
-196.18
-147.18
-105.18
-70.185
-36.185
18.815
58.815
106.82
151.82
206.82
252.82
317.82
357.82
411.82
438.82
478.82
469.82
454.82
406.82
356.82
296.82
237.82
183.82
141.82
83.815
47.815
10.815
-50.185
-92.185
-134.18
-157.18
-185.18
-197.18
-226.18
-246.18
-274.18
-315.18
-356.18
-352.18
-377.18
-370.18
-351.18
-335.18
-337.18
-341.18
-312.18
-320.18
-300.18
-271.18
-239.18
-211.18
-182.18
-152.18
-137.18
-96.185
-59.185
-29.185
13.815
53.815
92.815
139.82
152.82
197.82
236.82
284.82
319.82
376.82
426.82
447.82
472.82
493.82
483.82
466.82
439.82
384.82
333.82
278.82
236.82
152.82
122.82
64.815
43.815
-1.1847
-20.185
-60.185
-82.185
-116.18
-156.18
-215.18
-237.18
-274.18
-309.18
-347.18
-371.18
-389.18
-394.18
-400.18
-379.18
-376.18
-345.18
-331.18
-301.18
-281.18
-264.18
-246.18
-236.18
-212.18
-171.18
-150.18
-92.185
-74.185
-59.185
-20.185
7.8153
49.815
73.815
103.82
156.82
177.82
217.82
231.82
256.82
276.82
282.82
299.82
289.82
292.82
259.82
248.82
193.82
149.82
141.82
79.815
65.815
53.815
38.815
-1.1847
-40.185
-87.185
-122.18
-169.18
-199.18
-224.18
-250.18
-272.18
-295.18
-322.18
-327.18
-336.18
-324.18
-299.18
-276.18
-254.18
-220.18
-207.18
-172.18
-139.18
-112.18
-79.185
-61.185
-41.185
-20.185
3.8153
12.815
32.815
75.815
112.82
166.82
181.82
224.82
227.82
242.82
268.82
278.82
271.82
267.82
254.82
247.82
223.82
218.82
211.82
201.82
193.82
173.82
137.82
103.82
52.815
0.81528
-66.185
-109.18
-156.18
-210.18
-274.18
-322.18
-369.18
-414.18
-441.18
-456.18
-477.18
-461.18
-460.18
-432.18
-421.18
-390.18
-352.18
-317.18
-270.18
-230.18
-184.18
-154.18
-116.18
-89.185
-65.185
-21.185
18.815
45.815
88.815
127.82
154.82
177.82
211.82
222.82
253.82
287.82
309.82
332.82
348.82
358.82
371.82
362.82
362.82
347.82
308.82
264.82
218.82
173.82
137.82
86.815
65.815
53.815
28.815
24.815
-20.185
-55.185
-99.185
-135.18
-172.18
-190.18
-207.18
-212.18
-212.18
-214.18
-217.18
-219.18
-221.18
-207.18
-181.18
-146.18
-115.18
-57.185
-32.185
19.815
47.815
77.815
133.82
178.82
217.82
274.82
298.82
332.82
359.82
401.82
431.82
448.82
486.82
513.82
513.82
526.82
504.82
451.82
387.82
307.82
216.82
131.82
59.815
5.8153
-42.185
-85.185
-117.18
-149.18
-162.18
-182.18
-209.18
-215.18
-240.18
-247.18
-267.18
-286.18
-286.18
-281.18
-262.18
-267.18
-264.18
-247.18
-220.18
-224.18
-205.18
-181.18
-149.18
-126.18
-107.18
-92.185
-60.185
-26.185
15.815
60.815
116.82
151.82
203.82
239.82
282.82
336.82
363.82
411.82
447.82
484.82
521.82
516.82
517.82
522.82
507.82
511.82
489.82
486.82
449.82
379.82
299.82
209.82
121.82
53.815
-12.185
-55.185
-72.185
-91.185
-114.18
-127.18
-139.18
-156.18
-171.18
-174.18
-177.18
-210.18
-210.18
-212.18
-209.18
-212.18
-215.18
-189.18
-182.18
-161.18
-150.18
-125.18
-111.18
-84.185
-52.185
-15.185
33.815
75.815
112.82
134.82
168.82
191.82
199.82
246.82
287.82
326.82
363.82
398.82
417.82
448.82
461.82
477.82
496.82
497.82
491.82
474.82
469.82
426.82
397.82
353.82
297.82
218.82
148.82
55.815
-46.185
-112.18
-185.18
-239.18
-269.18
-295.18
-295.18
-296.18
-297.18
-297.18
-292.18
-289.18
-289.18
-275.18
-275.18
-266.18
-246.18
-214.18
-197.18
-201.18
-157.18
-137.18
-94.185
-52.185
-12.185
8.8153
48.815
91.815
126.82
192.82
233.82
289.82
317.82
339.82
383.82
404.82
418.82
457.82
483.82
506.82
534.82
569.82
572.82
587.82
571.82
554.82
527.82
466.82
394.82
317.82
208.82
122.82
49.815
8.8153
-31.185
-52.185
-64.185
-112.18
-152.18
-201.18
-250.18
-284.18
-300.18
-301.18
-315.18
-305.18
-286.18
-287.18
-279.18
-259.18
-232.18
-217.18
-171.18
-135.18
-114.18
-77.185
-49.185
-15.185
15.815
45.815
103.82
149.82
186.82
227.82
264.82
293.82
326.82
353.82
389.82
404.82
424.82
456.82
483.82
506.82
536.82
557.82
588.82
627.82
666.82
669.82
673.82
674.82
643.82
592.82
506.82
384.82
259.82
111.82
-1.1847
-59.185
-95.185
-162.18
-167.18
-187.18
-214.18
-249.18
-259.18
-287.18
-304.18
-319.18
-304.18
-301.18
-285.18
-264.18
-239.18
-216.18
-177.18
-139.18
-104.18
-41.185
3.8153
59.815
83.815
121.82
146.82
196.82
231.82
262.82
313.82
352.82
391.82
418.82
431.82
471.82
472.82
491.82
517.82
524.82
519.82
521.82
503.82
504.82
487.82
486.82
474.82
468.82
481.82
491.82
514.82
527.82
511.82
451.82
366.82
213.82
57.815
-101.18
-227.18
-301.18
-331.18
-379.18
-374.18
-355.18
-381.18
-385.18
-396.18
-400.18
-411.18
-365.18
-366.18
-324.18
-289.18
-230.18
-192.18
-149.18
-95.185
-31.185
30.815
101.82
173.82
228.82
268.82
321.82
367.82
374.82
419.82
431.82
464.82
453.82
468.82
479.82
467.82
457.82
431.82
431.82
403.82
392.82
361.82
339.82
307.82
266.82
242.82
201.82
172.82
132.82
80.815
13.815
-60.185
-117.18
-174.18
-204.18
-226.18
-235.18
-239.18
-236.18
-225.18
-229.18
-229.18
-217.18
-184.18
-167.18
-151.18
-116.18
-87.185
-74.185
-50.185
-16.185
0.81528
48.815
101.82
146.82
202.82
247.82
279.82
327.82
366.82
388.82
422.82
442.82
478.82
459.82
469.82
459.82
449.82
434.82
424.82
413.82
406.82
392.82
359.82
344.82
318.82
292.82
267.82
227.82
162.82
98.815
15.815
-49.185
-102.18
-157.18
-181.18
-217.18
-236.18
-265.18
-292.18
-304.18
-317.18
-341.18
-326.18
-327.18
-309.18
-282.18
-281.18
-245.18
-229.18
-201.18
-169.18
-132.18
-107.18
-47.185
-15.185
43.815
88.815
142.82
194.82
252.82
307.82
336.82
371.82
392.82
402.82
402.82
401.82
406.82
386.82
376.82
366.82
348.82
313.82
289.82
248.82
239.82
227.82
197.82
179.82
154.82
138.82
75.815
15.815
-60.185
-107.18
-159.18
-192.18
-214.18
-219.18
-236.18
-220.18
-201.18
-221.18
-211.18
-217.18
-194.18
-195.18
-191.18
-179.18
-170.18
-130.18
-102.18
-79.185
-41.185
-2.1847
37.815
83.815
117.82
151.82
213.82
252.82
307.82
351.82
389.82
411.82
411.82
429.82
427.82
436.82
431.82
429.82
429.82
416.82
417.82
387.82
387.82
367.82
352.82
347.82
336.82
297.82
252.82
206.82
129.82
53.815
-11.185
-87.185
-169.18
-220.18
-279.18
-322.18
-335.18
-334.18
-332.18
-316.18
-312.18
-317.18
-297.18
-305.18
-291.18
-292.18
-252.18
-229.18
-192.18
-172.18
-131.18
-101.18
-76.185
-34.185
28.815
91.815
137.82
206.82
249.82
291.82
338.82
336.82
376.82
372.82
353.82
323.82
291.82
252.82
231.82
207.82
182.82
167.82
171.82
157.82
164.82
158.82
123.82
87.815
33.815
-27.185
-80.185
-125.18
-146.18
-175.18
-200.18
-206.18
-210.18
-230.18
-240.18
-236.18
-250.18
-247.18
-240.18
-247.18
-237.18
-231.18
-220.18
-197.18
-184.18
-169.18
-152.18
-134.18
-109.18
-90.185
-37.185
-2.1847
50.815
83.815
137.82
181.82
221.82
257.82
313.82
343.82
381.82
412.82
416.82
417.82
418.82
419.82
393.82
389.82
392.82
383.82
398.82
372.82
368.82
351.82
318.82
281.82
213.82
164.82
83.815
-17.185
-125.18
-216.18
-276.18
-332.18
-366.18
-380.18
-359.18
-356.18
-367.18
-366.18
-371.18
-370.18
-352.18
-359.18
-344.18
-325.18
-314.18
-312.18
-281.18
-264.18
-259.18
-224.18
-191.18
-157.18
-125.18
-87.185
-60.185
-30.185
-2.1847
63.815
122.82
168.82
216.82
253.82
284.82
316.82
327.82
318.82
329.82
332.82
314.82
309.82
311.82
316.82
312.82
327.82
313.82
292.82
246.82
172.82
111.82
33.815
-39.185
-85.185
-104.18
-131.18
-125.18
-137.18
-152.18
-176.18
-197.18
-216.18
-234.18
-240.18
-235.18
-240.18
-241.18
-217.18
-224.18
-226.18
-224.18
-204.18
-169.18
-162.18
-147.18
-145.18
-115.18
-106.18
-95.185
-47.185
-19.185
19.815
40.815
83.815
112.82
152.82
197.82
251.82
313.82
369.82
422.82
463.82
519.82
542.82
546.82
547.82
552.82
526.82
498.82
452.82
431.82
383.82
373.82
343.82
303.82
262.82
222.82
151.82
83.815
18.815
-49.185
-107.18
-164.18
-180.18
-210.18
-242.18
-267.18
-289.18
-309.18
-309.18
-311.18
-309.18
-301.18
-292.18
-285.18
-269.18
-261.18
-240.18
-221.18
-216.18
-182.18
-171.18
-141.18
-124.18
-96.185
-72.185
-46.185
-2.1847
38.815
93.815
117.82
169.82
206.82
248.82
301.82
348.82
396.82
443.82
493.82
546.82
578.82
603.82
642.82
681.82
719.82
744.82
746.82
748.82
731.82
673.82
584.82
509.82
406.82
308.82
231.82
152.82
55.815
-29.185
-106.18
-200.18
-289.18
-367.18
-415.18
-464.18
-490.18
-496.18
-511.18
-519.18
-526.18
-520.18
-516.18
-505.18
-514.18
-504.18
-495.18
-485.18
-476.18
-464.18
-446.18
-400.18
-374.18
-355.18
-322.18
-285.18
-256.18
-231.18
-184.18
-159.18
-114.18
-87.185
-57.185
-19.185
13.815
60.815
136.82
187.82
234.82
281.82
309.82
343.82
346.82
341.82
353.82
377.82
388.82
397.82
399.82
393.82
372.82
339.82
288.82
224.82
158.82
80.815
24.815
-34.185
-97.185
-142.18
-191.18
-235.18
-281.18
-320.18
-350.18
-374.18
-386.18
-387.18
-400.18
-391.18
-397.18
-357.18
-360.18
-336.18
-319.18
-287.18
-281.18
-236.18
-200.18
-161.18
-112.18
-91.185
-51.185
-17.185
18.815
60.815
121.82
164.82
213.82
279.82
302.82
333.82
383.82
399.82
422.82
424.82
434.82
409.82
384.82
341.82
256.82
188.82
93.815
14.815
-67.185
-112.18
-155.18
-184.18
-189.18
-199.18
-217.18
-219.18
-227.18
-210.18
-249.18
-262.18
-272.18
-292.18
-311.18
-305.18
-291.18
-277.18
-274.18
-246.18
-247.18
-224.18
-214.18
-181.18
-146.18
-114.18
-80.185
-19.185
15.815
52.815
78.815
132.82
164.82
203.82
242.82
269.82
313.82
333.82
352.82
374.82
402.82
418.82
412.82
406.82
378.82
333.82
272.82
222.82
147.82
42.815
-57.185
-142.18
-211.18
-256.18
-280.18
-290.18
-294.18
-302.18
-315.18
-320.18
-352.18
-366.18
-389.18
-366.18
-369.18
-345.18
-335.18
-305.18
-286.18
-264.18
-236.18
-184.18
-147.18
-126.18
-87.185
-31.185
-15.185
33.815
50.815
91.815
123.82
167.82
211.82
251.82
303.82
339.82
387.82
431.82
479.82
514.82
578.82
611.82
656.82
653.82
627.82
599.82
543.82
468.82
416.82
358.82
266.82
168.82
53.815
-81.185
-181.18
-262.18
-314.18
-377.18
-434.18
-472.18
-529.18
-560.18
-581.18
-601.18
-597.18
-606.18
-600.18
-595.18
-565.18
-569.18
-551.18
-526.18
-494.18
-466.18
-432.18
-372.18
-341.18
-287.18
-254.18
-219.18
-181.18
-139.18
-65.185
-36.185
42.815
92.815
154.82
217.82
266.82
304.82
352.82
393.82
409.82
423.82
399.82
368.82
293.82
244.82
164.82
92.815
24.815
-40.185
-74.185
-121.18
-129.18
-150.18
-159.18
-166.18
-189.18
-191.18
-206.18
-221.18
-254.18
-269.18
-275.18
-269.18
-276.18
-242.18
-252.18
-232.18
-227.18
-226.18
-212.18
-194.18
-166.18
-136.18
-101.18
-66.185
-44.185
12.815
45.815
96.815
134.82
203.82
253.82
303.82
358.82
394.82
423.82
467.82
512.82
526.82
546.82
526.82
501.82
467.82
406.82
328.82
257.82
148.82
55.815
-41.185
-109.18
-161.18
-197.18
-215.18
-237.18
-240.18
-246.18
-252.18
-261.18
-266.18
-261.18
-267.18
-264.18
-267.18
-264.18
-260.18
-250.18
-255.18
-259.18
-236.18
-215.18
-201.18
-177.18
-149.18
-120.18
-81.185
-49.185
-25.185
4.8153
34.815
43.815
58.815
65.815
69.815
74.815
83.815
109.82
144.82
166.82
197.82
221.82
212.82
201.82
174.82
158.82
133.82
159.82
168.82
207.82
236.82
262.82
243.82
202.82
123.82
27.815
-35.185
-86.185
-122.18
-150.18
-155.18
-185.18
-185.18
-181.18
-197.18
-186.18
-196.18
-189.18
-186.18
-192.18
-187.18
-171.18
-152.18
-125.18
-95.185
-72.185
-30.185
-5.1847
37.815
75.815
118.82
173.82
204.82
243.82
281.82
299.82
327.82
346.82
358.82
399.82
427.82
452.82
454.82
453.82
418.82
397.82
366.82
303.82
279.82
241.82
216.82
179.82
113.82
30.815
-47.185
-141.18
-197.18
-259.18
-302.18
-337.18
-381.18
-412.18
-455.18
-467.18
-466.18
-465.18
-459.18
-442.18
-434.18
-411.18
-411.18
-385.18
-371.18
-349.18
-306.18
-266.18
-249.18
-214.18
-171.18
-135.18
-82.185
-22.185
27.815
80.815
131.82
154.82
197.82
228.82
244.82
264.82
293.82
314.82
296.82
297.82
277.82
258.82
224.82
214.82
171.82
143.82
102.82
32.815
-39.185
-106.18
-165.18
-202.18
-205.18
-229.18
-241.18
-252.18
-271.18
-270.18
-301.18
-296.18
-309.18
-317.18
-302.18
-316.18
-314.18
-326.18
-319.18
-321.18
-319.18
-321.18
-291.18
-275.18
-262.18
-230.18
-197.18
-170.18
-145.18
-92.185
-59.185
-12.185
35.815
77.815
111.82
143.82
186.82
227.82
274.82
288.82
304.82
318.82
301.82
271.82
247.82
241.82
233.82
234.82
222.82
249.82
232.82
204.82
147.82
89.815
23.815
-5.1847
-47.185
-67.185
-72.185
-92.185
-109.18
-136.18
-131.18
-147.18
-157.18
-150.18
-159.18
-179.18
-189.18
-189.18
-176.18
-187.18
-172.18
-162.18
-165.18
-165.18
-152.18
-146.18
-124.18
-100.18
-76.185
-49.185
-29.185
-6.1847
-0.18472
34.815
54.815
75.815
124.82
162.82
193.82
203.82
223.82
224.82
211.82
176.82
173.82
161.82
156.82
147.82
136.82
164.82
183.82
176.82
169.82
119.82
63.815
-27.185
-86.185
-146.18
-180.18
-197.18
-219.18
-221.18
-224.18
-221.18
-230.18
-227.18
-245.18
-235.18
-227.18
-227.18
-214.18
-195.18
-196.18
-187.18
-160.18
-141.18
-105.18
-74.185
-34.185
-7.1847
30.815
60.815
91.815
118.82
151.82
166.82
184.82
199.82
184.82
218.82
223.82
274.82
306.82
356.82
393.82
422.82
428.82
426.82
411.82
367.82
297.82
229.82
163.82
62.815
-11.185
-96.185
-156.18
-201.18
-230.18
-265.18
-281.18
-314.18
-310.18
-325.18
-341.18
-359.18
-385.18
-372.18
-400.18
-399.18
-385.18
-387.18
-382.18
-369.18
-355.18
-351.18
-335.18
-317.18
-280.18
-265.18
-216.18
-194.18
-155.18
-134.18
-84.185
-27.185
24.815
64.815
111.82
158.82
191.82
249.82
289.82
358.82
428.82
496.82
531.82
588.82
607.82
594.82
562.82
466.82
348.82
221.82
99.815
-14.185
-99.185
-162.18
-221.18
-259.18
-286.18
-329.18
-345.18
-399.18
-417.18
-449.18
-461.18
-462.18
-464.18
-459.18
-472.18
-449.18
-475.18
-469.18
-471.18
-476.18
-449.18
-412.18
-394.18
-355.18
-321.18
-287.18
-261.18
-226.18
-181.18
-144.18
-81.185
-57.185
-25.185
39.815
83.815
129.82
174.82
251.82
313.82
402.82
474.82
537.82
608.82
656.82
691.82
687.82
627.82
529.82
399.82
244.82
103.82
4.8153
-75.185
-109.18
-111.18
-122.18
-135.18
-139.18
-157.18
-170.18
-192.18
-201.18
-211.18
-211.18
-206.18
-196.18
-185.18
-194.18
-171.18
-156.18
-135.18
-106.18
-89.185
-47.185
-31.185
-16.185
0.81528
24.815
50.815
65.815
75.815
101.82
96.815
101.82
88.815
63.815
63.815
88.815
122.82
184.82
233.82
276.82
303.82
312.82
299.82
293.82
277.82
246.82
218.82
191.82
147.82
73.815
-4.1847
-99.185
-182.18
-259.18
-329.18
-365.18
-384.18
-409.18
-426.18
-427.18
-445.18
-435.18
-445.18
-456.18
-454.18
-450.18
-441.18
-430.18
-407.18
-374.18
-345.18
-285.18
-264.18
-245.18
-207.18
-169.18
-135.18
-71.185
-26.185
34.815
78.815
123.82
164.82
211.82
259.82
318.82
374.82
426.82
453.82
473.82
482.82
477.82
441.82
416.82
377.82
344.82
289.82
197.82
129.82
39.815
-30.185
-104.18
-174.18
-235.18
-281.18
-351.18
-391.18
-442.18
-479.18
-512.18
-524.18
-551.18
-554.18
-566.18
-559.18
-569.18
-571.18
-575.18
-586.18
-575.18
-566.18
-550.18
-549.18
-525.18
-494.18
-456.18
-432.18
-372.18
-320.18
-245.18
-187.18
-139.18
-84.185
-21.185
25.815
97.815
166.82
237.82
311.82
358.82
419.82
423.82
428.82
411.82
398.82
367.82
322.82
252.82
179.82
131.82
64.815
30.815
14.815
7.8153
-15.185
-12.185
-32.185
-34.185
-50.185
-59.185
-51.185
-76.185
-82.185
-81.185
-106.18
-134.18
-159.18
-192.18
-214.18
-235.18
-256.18
-270.18
-287.18
-294.18
-305.18
-299.18
-281.18
-257.18
-215.18
-174.18
-122.18
-62.185
-7.1847
44.815
119.82
168.82
238.82
283.82
364.82
417.82
439.82
484.82
496.82
531.82
543.82
553.82
557.82
563.82
522.82
507.82
442.82
351.82
232.82
106.82
-7.1847
-106.18
-190.18
-245.18
-274.18
-297.18
-299.18
-311.18
-317.18
-329.18
-342.18
-360.18
-371.18
-402.18
-415.18
-429.18
-445.18
-466.18
-502.18
-519.18
-535.18
-552.18
-535.18
-520.18
-486.18
-461.18
-436.18
-397.18
-360.18
-334.18
-306.18
-265.18
-225.18
-167.18
-106.18
-57.185
12.815
58.815
137.82
183.82
238.82
288.82
324.82
341.82
348.82
349.82
339.82
359.82
352.82
368.82
378.82
397.82
374.82
322.82
264.82
173.82
83.815
-7.1847
-77.185
-129.18
-179.18
-211.18
-234.18
-249.18
-236.18
-217.18
-226.18
-219.18
-222.18
-227.18
-226.18
-212.18
-187.18
-149.18
-110.18
-79.185
-31.185
22.815
65.815
97.815
139.82
157.82
197.82
228.82
271.82
313.82
351.82
416.82
461.82
492.82
517.82
542.82
542.82
514.82
489.82
437.82
376.82
331.82
274.82
223.82
132.82
42.815
-56.185
-175.18
-276.18
-341.18
-412.18
-479.18
-536.18
-576.18
-634.18
-682.18
-696.18
-715.18
-715.18
-687.18
-676.18
-682.18
-659.18
-651.18
-629.18
-621.18
-586.18
-547.18
-519.18
-487.18
-462.18
-405.18
-364.18
-312.18
-272.18
-222.18
-176.18
-126.18
-71.185
-36.185
23.815
65.815
134.82
186.82
237.82
248.82
267.82
263.82
237.82
208.82
167.82
146.82
118.82
93.815
52.815
-21.185
-84.185
-142.18
-174.18
-216.18
-226.18
-232.18
-230.18
-239.18
-227.18
-239.18
-254.18
-260.18
-257.18
-244.18
-220.18
-207.18
-200.18
-171.18
-171.18
-146.18
-105.18
-107.18
-84.185
-44.185
-61.185
-52.185
-57.185
-51.185
-30.185
-7.1847
15.815
58.815
109.82
157.82
212.82
266.82
309.82
361.82
389.82
397.82
381.82
352.82
301.82
281.82
242.82
214.82
158.82
74.815
-10.185
-124.18
-202.18
-300.18
-351.18
-386.18
-415.18
-416.18
-429.18
-445.18
-434.18
-445.18
-441.18
-442.18
-431.18
-427.18
-395.18
-377.18
-349.18
-332.18
-296.18
-275.18
-256.18
-220.18
-195.18
-167.18
-131.18
-100.18
-55.185
5.8153
42.815
94.815
153.82
202.82
252.82
289.82
318.82
339.82
362.82
383.82
351.82
319.82
278.82
227.82
169.82
99.815
19.815
-9.1847
-89.185
-160.18
-219.18
-280.18
-365.18
-411.18
-436.18
-470.18
-460.18
-484.18
-486.18
-477.18
-481.18
-485.18
-489.18
-496.18
-480.18
-452.18
-424.18
-409.18
-380.18
-360.18
-334.18
-316.18
-300.18
-261.18
-222.18
-194.18
-132.18
-114.18
-66.185
-14.185
25.815
89.815
144.82
198.82
264.82
298.82
318.82
338.82
346.82
342.82
331.82
307.82
303.82
263.82
213.82
151.82
57.815
-16.185
-104.18
-179.18
-237.18
-267.18
-290.18
-332.18
-364.18
-391.18
-430.18
-452.18
-480.18
-492.18
-526.18
-547.18
-576.18
-592.18
-595.18
-601.18
-596.18
-594.18
-574.18
-554.18
-529.18
-512.18
-475.18
-435.18
-400.18
-369.18
-344.18
-309.18
-286.18
-236.18
-192.18
-131.18
-51.185
14.815
99.815
158.82
231.82
266.82
306.82
326.82
303.82
281.82
206.82
112.82
13.815
-105.18
-171.18
-202.18
-187.18
-174.18
-166.18
-155.18
-165.18
-174.18
-187.18
-192.18
-217.18
-237.18
-236.18
-244.18
-259.18
-269.18
-286.18
-282.18
-276.18
-291.18
-261.18
-256.18
-244.18
-241.18
-219.18
-202.18
-170.18
-152.18
-110.18
-77.185
-87.185
-41.185
-22.185
-0.18472
34.815
75.815
131.82
198.82
258.82
308.82
364.82
402.82
437.82
473.82
498.82
489.82
473.82
429.82
363.82
257.82
117.82
-24.185
-151.18
-280.18
-351.18
-395.18
-414.18
-422.18
-449.18
-454.18
-466.18
-457.18
-466.18
-465.18
-471.18
-499.18
-509.18
-504.18
-510.18
-494.18
-476.18
-475.18
-457.18
-441.18
-429.18
-414.18
-395.18
-377.18
-356.18
-325.18
-309.18
-304.18
-269.18
-241.18
-207.18
-171.18
-91.185
-36.185
10.815
64.815
114.82
167.82
196.82
212.82
234.82
229.82
243.82
211.82
199.82
199.82
197.82
203.82
204.82
183.82
136.82
45.815
-27.185
-146.18
-246.18
-282.18
-319.18
-332.18
-312.18
-301.18
-306.18
-294.18
-277.18
-251.18
-236.18
-217.18
-205.18
-157.18
-130.18
-90.185
-70.185
-39.185
3.8153
54.815
84.815
124.82
143.82
189.82
227.82
253.82
311.82
362.82
424.82
459.82
498.82
543.82
543.82
548.82
536.82
507.82
449.82
394.82
314.82
197.82
67.815
-47.185
-186.18
-282.18
-376.18
-444.18
-499.18
-542.18
-567.18
-607.18
-622.18
-639.18
-656.18
-650.18
-680.18
-674.18
-684.18
-699.18
-700.18
-686.18
-667.18
-642.18
-619.18
-582.18
-545.18
-519.18
-467.18
-440.18
-397.18
-350.18
-292.18
-259.18
-212.18
-159.18
-115.18
-57.185
-15.185
48.815
112.82
173.82
248.82
294.82
357.82
397.82
433.82
454.82
448.82
444.82
412.82
347.82
258.82
152.82
39.815
-64.185
-120.18
-162.18
-177.18
-181.18
-211.18
-220.18
-249.18
-264.18
-284.18
-296.18
-314.18
-327.18
-332.18
-352.18
-352.18
-365.18
-361.18
-351.18
-360.18
-336.18
-334.18
-329.18
-311.18
-280.18
-264.18
-236.18
-204.18
-151.18
-125.18
-91.185
-46.185
-16.185
39.815
97.815
157.82
231.82
307.82
389.82
433.82
514.82
566.82
611.82
611.82
604.82
568.82
484.82
363.82
201.82
52.815
-69.185
-157.18
-220.18
-231.18
-256.18
-270.18
-277.18
-306.18
-334.18
-345.18
-349.18
-349.18
-364.18
-354.18
-366.18
-392.18
-394.18
-390.18
-397.18
-390.18
-384.18
-391.18
-372.18
-366.18
-369.18
-337.18
-312.18
-290.18
-247.18
-219.18
-190.18
-171.18
-157.18
-101.18
-57.185
-20.185
34.815
87.815
151.82
217.82
297.82
356.82
408.82
463.82
494.82
493.82
472.82
412.82
296.82
147.82
25.815
-64.185
-117.18
-149.18
-171.18
-184.18
-201.18
-200.18
-209.18
-210.18
-219.18
-211.18
-211.18
-211.18
-217.18
-210.18
-206.18
-192.18
-187.18
-171.18
-154.18
-146.18
-140.18
-129.18
-97.185
-71.185
-42.185
7.8153
58.815
79.815
124.82
168.82
188.82
204.82
248.82
267.82
319.82
364.82
397.82
427.82
466.82
481.82
512.82
511.82
516.82
511.82
481.82
418.82
319.82
166.82
-24.185
-195.18
-329.18
-422.18
-462.18
-471.18
-492.18
-497.18
-501.18
-499.18
-511.18
-512.18
-530.18
-540.18
-550.18
-559.18
-559.18
-539.18
-544.18
-536.18
-530.18
-509.18
-502.18
-491.18
-447.18
-411.18
-391.18
-322.18
-296.18
-245.18
-205.18
-166.18
-127.18
-80.185
-57.185
-6.1847
38.815
94.815
144.82
204.82
259.82
296.82
373.82
438.82
472.82
556.82
581.82
606.82
602.82
589.82
569.82
526.82
447.82
336.82
182.82
44.815
-89.185
-202.18
-280.18
-329.18
-341.18
-350.18
-362.18
-374.18
-367.18
-396.18
-387.18
-406.18
-405.18
-392.18
-375.18
-374.18
-359.18
-352.18
-322.18
-301.18
-266.18
-234.18
-209.18
-177.18
-149.18
-136.18
-101.18
-89.185
-62.185
-12.185
17.815
53.815
88.815
139.82
