42.733
42.733
47.733
53.733
58.733
61.733
66.733
68.733
74.733
76.733
76.733
78.733
82.733
83.733
87.733
93.733
96.733
98.733
105.73
106.73
109.73
106.73
105.73
105.73
104.73
100.73
100.73
95.733
95.733
89.733
87.733
83.733
74.733
68.733
63.733
57.733
51.733
44.733
42.733
37.733
37.733
30.733
33.733
29.733
22.733
21.733
16.733
14.733
12.733
8.7329
10.733
8.7329
6.7329
8.7329
9.7329
8.7329
7.7329
7.7329
7.7329
9.7329
6.7329
4.7329
6.7329
7.7329
8.7329
11.733
12.733
10.733
11.733
9.7329
8.7329
9.7329
8.7329
9.7329
8.7329
10.733
14.733
17.733
16.733
17.733
15.733
15.733
13.733
11.733
8.7329
10.733
10.733
16.733
17.733
19.733
20.733
21.733
21.733
17.733
10.733
11.733
12.733
9.7329
7.7329
10.733
12.733
13.733
14.733
13.733
10.733
10.733
5.7329
5.7329
8.7329
3.7329
4.7329
5.7329
5.7329
7.7329
8.7329
8.7329
6.7329
3.7329
1.7329
0.73291
-1.2671
-4.2671
-6.2671
-1.2671
0.73291
3.7329
3.7329
4.7329
-0.26709
-2.2671
-3.2671
-3.2671
-5.2671
-7.2671
-5.2671
-3.2671
-2.2671
-1.2671
0.73291
-0.26709
-0.26709
-1.2671
-2.2671
-2.2671
-4.2671
-4.2671
-6.2671
-2.2671
-4.2671
-0.26709
0.73291
-2.2671
-1.2671
-4.2671
-5.2671
-7.2671
-7.2671
-6.2671
-6.2671
-3.2671
-1.2671
-2.2671
-2.2671
-1.2671
-1.2671
-2.2671
-4.2671
-3.2671
-2.2671
-0.26709
7.7329
10.733
16.733
20.733
23.733
27.733
29.733
30.733
31.733
38.733
48.733
54.733
61.733
65.733
67.733
63.733
63.733
62.733
61.733
59.733
53.733
47.733
38.733
28.733
18.733
9.7329
0.73291
-4.2671
-3.2671
-6.2671
-11.267
-14.267
-17.267
-15.267
-12.267
-15.267
-13.267
-14.267
-14.267
-13.267
-14.267
-15.267
-15.267
-17.267
-18.267
-18.267
-21.267
-21.267
-19.267
-18.267
-14.267
-12.267
-11.267
-9.2671
-9.2671
-10.267
-16.267
-20.267
-28.267
-32.267
-24.267
-6.2671
26.733
72.733
133.73
206.73
283.73
354.73
400.73
427.73
428.73
404.73
358.73
282.73
180.73
78.733
0.73291
-39.267
-42.267
-18.267
7.7329
25.733
33.733
29.733
17.733
3.7329
-4.2671
-12.267
-12.267
-13.267
-11.267
-12.267
-14.267
-15.267
-18.267
-24.267
-19.267
-17.267
-15.267
-17.267
-17.267
-15.267
-14.267
-19.267
-21.267
-21.267
-21.267
-22.267
-23.267
-18.267
-17.267
-18.267
-20.267
-18.267
-22.267
-21.267
-24.267
-26.267
-28.267
-25.267
-24.267
-21.267
-21.267
-19.267
-14.267
-15.267
-13.267
-18.267
-19.267
-20.267
-20.267
-20.267
-17.267
-16.267
-14.267
-12.267
-6.2671
-5.2671
-5.2671
-3.2671
-5.2671
-6.2671
-2.2671
-5.2671
-0.26709
2.7329
8.7329
9.7329
14.733
15.733
16.733
23.733
22.733
25.733
28.733
34.733
34.733
38.733
44.733
50.733
58.733
66.733
66.733
68.733
72.733
75.733
75.733
75.733
78.733
86.733
90.733
96.733
95.733
95.733
98.733
96.733
99.733
100.73
99.733
98.733
94.733
96.733
95.733
93.733
89.733
86.733
80.733
74.733
66.733
55.733
48.733
41.733
36.733
32.733
23.733
23.733
22.733
19.733
11.733
7.7329
2.7329
-3.2671
-7.2671
-11.267
-11.267
-13.267
-12.267
-12.267
-10.267
-13.267
-15.267
-15.267
-17.267
-18.267
-20.267
-21.267
-23.267
-22.267
-19.267
-19.267
-14.267
-19.267
-20.267
-16.267
-16.267
-17.267
-18.267
-17.267
-17.267
-21.267
-14.267
-13.267
-11.267
-11.267
-10.267
-15.267
-15.267
-13.267
-15.267
-15.267
-11.267
-7.2671
-7.2671
-6.2671
-1.2671
-3.2671
-2.2671
-5.2671
-9.2671
-13.267
-10.267
-13.267
-15.267
-11.267
-8.2671
-8.2671
-10.267
-6.2671
-9.2671
-10.267
-8.2671
-11.267
-12.267
-12.267
-15.267
-11.267
-9.2671
-13.267
-9.2671
-8.2671
-9.2671
-11.267
-15.267
-18.267
-22.267
-19.267
-18.267
-18.267
-15.267
-14.267
-10.267
-11.267
-13.267
-14.267
-15.267
-17.267
-19.267
-20.267
-20.267
-21.267
-19.267
-17.267
-15.267
-14.267
-13.267
-17.267
-19.267
-18.267
-21.267
-24.267
-25.267
-21.267
-18.267
-16.267
-13.267
-12.267
-12.267
-11.267
-10.267
-8.2671
-7.2671
-6.2671
-0.26709
0.73291
4.7329
9.7329
13.733
13.733
17.733
19.733
24.733
27.733
36.733
41.733
48.733
49.733
50.733
49.733
48.733
49.733
45.733
48.733
44.733
41.733
34.733
24.733
17.733
7.7329
-0.26709
-10.267
-14.267
-17.267
-21.267
-21.267
-22.267
-26.267
-26.267
-25.267
-26.267
-25.267
-25.267
-28.267
-24.267
-27.267
-27.267
-28.267
-30.267
-28.267
-29.267
-27.267
-28.267
-25.267
-21.267
-18.267
-17.267
-21.267
-23.267
-24.267
-31.267
-34.267
-40.267
-37.267
-34.267
-20.267
4.7329
39.733
88.733
149.73
219.73
292.73
352.73
396.73
412.73
411.73
387.73
335.73
253.73
147.73
48.733
-20.267
-54.267
-48.267
-24.267
1.7329
16.733
18.733
10.733
-0.26709
-8.2671
-17.267
-19.267
-20.267
-23.267
-23.267
-25.267
-26.267
-26.267
-27.267
-28.267
-27.267
-23.267
-22.267
-21.267
-21.267
-24.267
-25.267
-27.267
-27.267
-30.267
-34.267
-32.267
-31.267
-27.267
-30.267
-29.267
-31.267
-25.267
-25.267
-26.267
-26.267
-29.267
-26.267
-26.267
-28.267
-21.267
-23.267
-19.267
-18.267
-19.267
-17.267
-18.267
-20.267
-22.267
-25.267
-21.267
-23.267
-15.267
-12.267
-7.2671
-5.2671
-11.267
-11.267
-13.267
-7.2671
-8.2671
-6.2671
-4.2671
-0.26709
1.7329
7.7329
9.7329
12.733
13.733
14.733
16.733
14.733
16.733
20.733
22.733
27.733
34.733
37.733
41.733
48.733
50.733
52.733
57.733
58.733
63.733
64.733
67.733
71.733
80.733
81.733
86.733
89.733
90.733
91.733
89.733
93.733
94.733
96.733
96.733
99.733
102.73
102.73
102.73
100.73
94.733
85.733
80.733
70.733
69.733
61.733
55.733
49.733
43.733
40.733
34.733
30.733
26.733
16.733
12.733
8.7329
5.7329
0.73291
-1.2671
-2.2671
-6.2671
-6.2671
-2.2671
-3.2671
-5.2671
-10.267
-12.267
-14.267
-15.267
-13.267
-16.267
-19.267
-15.267
-15.267
-13.267
-13.267
-14.267
-15.267
-15.267
-21.267
-24.267
-22.267
-21.267
-22.267
-18.267
-13.267
-13.267
-11.267
-10.267
-11.267
-13.267
-14.267
-14.267
-12.267
-13.267
-13.267
-10.267
-9.2671
-7.2671
-4.2671
-3.2671
-2.2671
-5.2671
-7.2671
-6.2671
-5.2671
-5.2671
-5.2671
-2.2671
-1.2671
1.7329
0.73291
-0.26709
-0.26709
-3.2671
-3.2671
-7.2671
-6.2671
-5.2671
-7.2671
-3.2671
-3.2671
-2.2671
-3.2671
-4.2671
-7.2671
-9.2671
-10.267
-12.267
-16.267
-14.267
-10.267
-10.267
-12.267
-10.267
-6.2671
-8.2671
-10.267
-11.267
-14.267
-15.267
-17.267
-17.267
-18.267
-15.267
-12.267
-14.267
-14.267
-13.267
-15.267
-14.267
-17.267
-19.267
-21.267
-18.267
-17.267
-16.267
-16.267
-13.267
-13.267
-14.267
-15.267
-15.267
-20.267
-24.267
-26.267
-23.267
-19.267
-18.267
-17.267
-14.267
-13.267
-14.267
-14.267
-17.267
-20.267
-20.267
-14.267
-17.267
-14.267
-7.2671
2.7329
8.7329
9.7329
14.733
16.733
16.733
17.733
19.733
22.733
28.733
34.733
45.733
54.733
60.733
58.733
54.733
50.733
48.733
45.733
44.733
44.733
41.733
41.733
36.733
29.733
20.733
6.7329
-5.2671
-17.267
-16.267
-18.267
-21.267
-25.267
-24.267
-24.267
-21.267
-24.267
-23.267
-22.267
-23.267
-25.267
-28.267
-29.267
-28.267
-31.267
-29.267
-30.267
-27.267
-25.267
-27.267
-28.267
-28.267
-27.267
-28.267
-29.267
-27.267
-26.267
-28.267
-27.267
-24.267
-31.267
-34.267
-35.267
-33.267
-20.267
6.7329
42.733
91.733
159.73
233.73
310.73
375.73
418.73
435.73
433.73
403.73
349.73
261.73
159.73
54.733
-20.267
-51.267
-46.267
-19.267
10.733
24.733
29.733
23.733
10.733
-5.2671
-18.267
-24.267
-26.267
-28.267
-27.267
-24.267
-23.267
-20.267
-23.267
-24.267
-24.267
-25.267
-27.267
-31.267
-31.267
-31.267
-29.267
-27.267
-25.267
-25.267
-22.267
-23.267
-24.267
-28.267
-27.267
-29.267
-32.267
-31.267
-27.267
-27.267
-26.267
-25.267
-22.267
-22.267
-24.267
-25.267
-25.267
-26.267
-26.267
-24.267
-25.267
-23.267
-22.267
-20.267
-21.267
-20.267
-19.267
-18.267
-18.267
-19.267
-17.267
-14.267
-12.267
-11.267
-5.2671
-2.2671
-3.2671
0.73291
2.7329
-2.2671
-1.2671
-1.2671
-0.26709
8.7329
10.733
15.733
19.733
23.733
29.733
33.733
38.733
40.733
41.733
42.733
47.733
53.733
55.733
64.733
66.733
72.733
81.733
83.733
86.733
88.733
90.733
93.733
93.733
98.733
101.73
106.73
109.73
111.73
111.73
110.73
113.73
109.73
103.73
99.733
95.733
91.733
89.733
83.733
78.733
71.733
68.733
60.733
55.733
47.733
40.733
34.733
26.733
21.733
19.733
16.733
14.733
10.733
10.733
6.7329
4.7329
1.7329
-1.2671
-5.2671
-8.2671
-10.267
-9.2671
-7.2671
-6.2671
-7.2671
-6.2671
-7.2671
-9.2671
-9.2671
-12.267
-13.267
-12.267
-13.267
-16.267
-10.267
-10.267
-5.2671
-6.2671
-5.2671
-5.2671
-8.2671
-10.267
-13.267
-12.267
-10.267
-9.2671
-7.2671
-3.2671
-1.2671
-0.26709
-1.2671
-1.2671
-1.2671
-1.2671
-5.2671
-10.267
-9.2671
-6.2671
-4.2671
-1.2671
-1.2671
1.7329
0.73291
0.73291
-2.2671
-3.2671
-2.2671
-5.2671
-9.2671
-10.267
-7.2671
-8.2671
-3.2671
-2.2671
-6.2671
-2.2671
-5.2671
-7.2671
-7.2671
-9.2671
-11.267
-9.2671
-8.2671
-12.267
-2.2671
-5.2671
-8.2671
-5.2671
-8.2671
-10.267
-11.267
-11.267
-11.267
-10.267
-9.2671
-9.2671
-9.2671
-8.2671
-10.267
-14.267
-13.267
-12.267
-16.267
-15.267
-17.267
-14.267
-13.267
-12.267
-8.2671
-9.2671
-9.2671
-12.267
-11.267
-14.267
-15.267
-18.267
-19.267
-19.267
-14.267
-11.267
-13.267
-9.2671
-10.267
-10.267
-11.267
-13.267
-15.267
-15.267
-14.267
-13.267
-10.267
-4.2671
-6.2671
-3.2671
-4.2671
0.73291
1.7329
2.7329
3.7329
9.7329
8.7329
13.733
18.733
23.733
27.733
33.733
38.733
46.733
50.733
50.733
56.733
53.733
51.733
49.733
50.733
53.733
53.733
52.733
45.733
37.733
27.733
12.733
-1.2671
-9.2671
-16.267
-19.267
-19.267
-16.267
-15.267
-13.267
-17.267
-19.267
-20.267
-20.267
-24.267
-24.267
-26.267
-25.267
-24.267
-23.267
-23.267
-19.267
-19.267
-24.267
-25.267
-26.267
-27.267
-28.267
-29.267
-28.267
-22.267
-20.267
-17.267
-19.267
-20.267
-27.267
-32.267
-38.267
-38.267
-22.267
-1.2671
36.733
89.733
156.73
231.73
303.73
362.73
403.73
419.73
410.73
379.73
323.73
232.73
127.73
25.733
-40.267
-60.267
-51.267
-22.267
5.7329
20.733
23.733
14.733
-3.2671
-12.267
-19.267
-24.267
-23.267
-20.267
-19.267
-19.267
-24.267
-22.267
-28.267
-30.267
-32.267
-32.267
-33.267
-29.267
-28.267
-27.267
-25.267
-30.267
-32.267
-32.267
-36.267
-36.267
-35.267
-34.267
-32.267
-31.267
-31.267
-29.267
-24.267
-28.267
-28.267
-30.267
-32.267
-38.267
-34.267
-33.267
-31.267
-31.267
-26.267
-24.267
-21.267
-22.267
-24.267
-22.267
-27.267
-27.267
-26.267
-24.267
-23.267
-17.267
-17.267
-10.267
-7.2671
-6.2671
-3.2671
-7.2671
-9.2671
-9.2671
-5.2671
-3.2671
-0.26709
1.7329
7.7329
8.7329
15.733
19.733
22.733
23.733
29.733
29.733
33.733
34.733
43.733
50.733
54.733
63.733
67.733
71.733
72.733
72.733
76.733
77.733
82.733
84.733
84.733
90.733
94.733
98.733
102.73
103.73
101.73
100.73
99.733
94.733
94.733
88.733
84.733
81.733
78.733
71.733
67.733
58.733
51.733
41.733
36.733
30.733
20.733
15.733
10.733
10.733
3.7329
1.7329
-0.26709
-4.2671
-7.2671
-10.267
-14.267
-16.267
-20.267
-19.267
-19.267
-20.267
-18.267
-16.267
-16.267
-19.267
-21.267
-22.267
-25.267
-25.267
-28.267
-29.267
-28.267
-25.267
-23.267
-23.267
-22.267
-21.267
-21.267
-23.267
-29.267
-29.267
-27.267
-26.267
-25.267
-21.267
-21.267
-23.267
-23.267
-21.267
-23.267
-23.267
-24.267
-22.267
-16.267
-17.267
-19.267
-18.267
-13.267
-14.267
-13.267
-12.267
-11.267
-12.267
-18.267
-16.267
-18.267
-21.267
-20.267
-15.267
-12.267
-13.267
-9.2671
-12.267
-14.267
-13.267
-16.267
-19.267
-19.267
-21.267
-21.267
-19.267
-19.267
-19.267
-16.267
-15.267
-19.267
-21.267
-23.267
-25.267
-26.267
-27.267
-29.267
-26.267
-24.267
-18.267
-16.267
-17.267
-19.267
-19.267
-23.267
-23.267
-22.267
-27.267
-26.267
-27.267
-27.267
-27.267
-22.267
-23.267
-23.267
-26.267
-28.267
-31.267
-29.267
-27.267
-27.267
-23.267
-21.267
-17.267
-13.267
-10.267
-11.267
-6.2671
-6.2671
-5.2671
-3.2671
-3.2671
2.7329
5.7329
10.733
17.733
27.733
34.733
40.733
44.733
43.733
41.733
41.733
36.733
36.733
34.733
34.733
34.733
30.733
18.733
10.733
-0.26709
-10.267
-22.267
-25.267
-32.267
-30.267
-30.267
-29.267
-28.267
-27.267
-31.267
-32.267
-35.267
-35.267
-38.267
-40.267
-41.267
-38.267
-36.267
-33.267
-33.267
-30.267
-33.267
-32.267
-38.267
-37.267
-36.267
-35.267
-38.267
-37.267
-36.267
-34.267
-30.267
-33.267
-40.267
-41.267
-38.267
-34.267
-20.267
6.7329
46.733
94.733
160.73
235.73
305.73
360.73
393.73
405.73
401.73
374.73
320.73
242.73
143.73
41.733
-32.267
-66.267
-63.267
-38.267
-9.2671
8.7329
17.733
7.7329
-2.2671
-16.267
-30.267
-34.267
-38.267
-39.267
-39.267
-36.267
-34.267
-36.267
-38.267
-41.267
-41.267
-44.267
-50.267
-45.267
-45.267
-41.267
-38.267
-40.267
-40.267
-38.267
-41.267
-40.267
-42.267
-44.267
-46.267
-43.267
-42.267
-38.267
-40.267
-33.267
-34.267
-33.267
-37.267
-37.267
-40.267
-42.267
-38.267
-42.267
-42.267
-36.267
-34.267
-29.267
-32.267
-30.267
-31.267
-31.267
-36.267
-33.267
-33.267
-31.267
-29.267
-26.267
-22.267
-19.267
-17.267
-15.267
-15.267
-16.267
-16.267
-15.267
-15.267
-12.267
-7.2671
-5.2671
-0.26709
3.7329
5.7329
6.7329
8.7329
9.7329
11.733
11.733
16.733
20.733
24.733
33.733
37.733
40.733
46.733
49.733
50.733
52.733
57.733
61.733
64.733
68.733
76.733
80.733
86.733
89.733
89.733
91.733
90.733
96.733
96.733
94.733
94.733
96.733
97.733
98.733
97.733
93.733
90.733
84.733
77.733
68.733
61.733
56.733
49.733
42.733
36.733
35.733
24.733
23.733
18.733
14.733
6.7329
-1.2671
-3.2671
-8.2671
-8.2671
-15.267
-14.267
-13.267
-13.267
-12.267
-15.267
-17.267
-18.267
-23.267
-25.267
-28.267
-29.267
-28.267
-28.267
-24.267
-22.267
-23.267
-23.267
-25.267
-27.267
-29.267
-27.267
-29.267
-28.267
-31.267
-31.267
-26.267
-21.267
-19.267
-19.267
-20.267
-22.267
-21.267
-24.267
-27.267
-26.267
-23.267
-20.267
-18.267
-19.267
-17.267
-15.267
-16.267
-19.267
-20.267
-20.267
-16.267
-16.267
-16.267
-15.267
-12.267
-10.267
-14.267
-11.267
-8.2671
-10.267
-11.267
-12.267
-15.267
-13.267
-17.267
-11.267
-12.267
-11.267
-12.267
-12.267
-13.267
-14.267
-18.267
-21.267
-20.267
-19.267
-18.267
-18.267
-17.267
-14.267
-12.267
-11.267
-13.267
-15.267
-19.267
-20.267
-23.267
-24.267
-21.267
-21.267
-22.267
-20.267
-19.267
-17.267
-18.267
-18.267
-21.267
-23.267
-26.267
-25.267
-19.267
-21.267
-19.267
-17.267
-20.267
-21.267
-22.267
-23.267
-24.267
-26.267
-26.267
-24.267
-23.267
-29.267
-24.267
-24.267
-21.267
-19.267
-19.267
-19.267
-18.267
-22.267
-25.267
-25.267
-24.267
-21.267
-19.267
-18.267
-16.267
-15.267
-15.267
-17.267
-19.267
-19.267
-19.267
-18.267
-13.267
-12.267
-6.2671
1.7329
6.7329
10.733
11.733
10.733
8.7329
14.733
17.733
19.733
29.733
37.733
44.733
49.733
57.733
59.733
54.733
50.733
47.733
42.733
43.733
38.733
36.733
31.733
24.733
14.733
3.7329
-6.2671
-10.267
-18.267
-21.267
-25.267
-28.267
-26.267
-26.267
-24.267
-25.267
-26.267
-24.267
-22.267
-21.267
-23.267
-24.267
-26.267
-28.267
-27.267
-28.267
-26.267
-23.267
-22.267
-23.267
-19.267
-24.267
-24.267
-24.267
-24.267
-23.267
-25.267
-28.267
-33.267
-34.267
-33.267
-22.267
-0.26709
36.733
90.733
157.73
235.73
311.73
371.73
411.73
424.73
417.73
386.73
327.73
243.73
140.73
39.733
-24.267
-48.267
-42.267
-12.267
10.733
26.733
30.733
23.733
11.733
0.73291
-9.2671
-18.267
-20.267
-20.267
-22.267
-22.267
-20.267
-23.267
-19.267
-16.267
-21.267
-18.267
-23.267
-22.267
-23.267
-26.267
-26.267
-26.267
-29.267
-28.267
-23.267
-23.267
-20.267
-23.267
-25.267
-25.267
-25.267
-26.267
-28.267
-31.267
-29.267
-24.267
-27.267
-23.267
-20.267
-19.267
-20.267
-19.267
-24.267
-23.267
-26.267
-29.267
-27.267
-23.267
-22.267
-17.267
-16.267
-12.267
-12.267
-11.267
-12.267
-10.267
-12.267
-9.2671
-11.267
-6.2671
-4.2671
2.7329
3.7329
5.7329
7.7329
11.733
10.733
9.7329
13.733
16.733
22.733
27.733
30.733
34.733
41.733
46.733
51.733
54.733
56.733
55.733
60.733
62.733
69.733
74.733
80.733
86.733
91.733
94.733
94.733
98.733
97.733
103.73
101.73
106.73
107.73
111.73
111.73
116.73
118.73
117.73
110.73
104.73
103.73
99.733
90.733
84.733
78.733
77.733
70.733
68.733
61.733
57.733
48.733
42.733
36.733
27.733
22.733
16.733
14.733
14.733
11.733
10.733
8.7329
5.7329
6.7329
2.7329
-4.2671
-3.2671
-8.2671
-6.2671
-11.267
-10.267
-6.2671
-5.2671
-6.2671
-4.2671
-4.2671
-7.2671
-10.267
-7.2671
-7.2671
-9.2671
-8.2671
-7.2671
-6.2671
-3.2671
-2.2671
-0.26709
-1.2671
-2.2671
-3.2671
-4.2671
-5.2671
-5.2671
-3.2671
-5.2671
-1.2671
1.7329
1.7329
3.7329
4.7329
2.7329
2.7329
0.73291
-0.26709
-0.26709
1.7329
2.7329
6.7329
4.7329
10.733
7.7329
9.7329
7.7329
5.7329
4.7329
0.73291
-0.26709
-0.26709
-1.2671
2.7329
4.7329
2.7329
6.7329
4.7329
-0.26709
-5.2671
-2.2671
-4.2671
-5.2671
-7.2671
-4.2671
-6.2671
-5.2671
-2.2671
-3.2671
-5.2671
-6.2671
-6.2671
-7.2671
-11.267
-8.2671
-7.2671
-10.267
-9.2671
-8.2671
-6.2671
-4.2671
-5.2671
-5.2671
-9.2671
-10.267
-12.267
-11.267
-12.267
-11.267
-8.2671
-9.2671
-6.2671
-5.2671
-6.2671
-7.2671
-6.2671
-11.267
-11.267
-15.267
-14.267
-14.267
-15.267
-14.267
-9.2671
-8.2671
-7.2671
-7.2671
-13.267
-11.267
-14.267
-14.267
-13.267
-14.267
-14.267
-14.267
-11.267
-6.2671
-6.2671
-6.2671
-5.2671
-5.2671
-4.2671
-4.2671
-1.2671
1.7329
8.7329
16.733
19.733
18.733
20.733
25.733
28.733
34.733
43.733
49.733
56.733
60.733
61.733
60.733
59.733
57.733
56.733
56.733
52.733
46.733
39.733
29.733
19.733
10.733
3.7329
-8.2671
-9.2671
-11.267
-13.267
-14.267
-14.267
-14.267
-19.267
-20.267
-22.267
-21.267
-21.267
-22.267
-20.267
-19.267
-23.267
-21.267
-21.267
-22.267
-23.267
-25.267
-23.267
-22.267
-19.267
-18.267
-20.267
-18.267
-20.267
-19.267
-19.267
-21.267
-22.267
-23.267
-29.267
-35.267
-36.267
-32.267
-19.267
9.7329
44.733
94.733
161.73
240.73
313.73
369.73
408.73
422.73
412.73
369.73
300.73
198.73
87.733
-2.2671
-49.267
-56.267
-36.267
-8.2671
14.733
24.733
23.733
9.7329
1.7329
-8.2671
-18.267
-22.267
-26.267
-25.267
-27.267
-29.267
-28.267
-25.267
-26.267
-25.267
-26.267
-25.267
-25.267
-29.267
-28.267
-28.267
-28.267
-33.267
-32.267
-28.267
-27.267
-28.267
-28.267
-24.267
-26.267
-28.267
-27.267
-29.267
-31.267
-32.267
-31.267
-31.267
-25.267
-25.267
-24.267
-24.267
-22.267
-23.267
-21.267
-23.267
-26.267
-25.267
-23.267
-23.267
-17.267
-17.267
-16.267
-16.267
-16.267
-16.267
-14.267
-14.267
-15.267
-12.267
-11.267
-8.2671
-6.2671
0.73291
4.7329
7.7329
7.7329
8.7329
7.7329
8.7329
10.733
12.733
19.733
25.733
32.733
35.733
41.733
47.733
49.733
52.733
55.733
57.733
60.733
63.733
69.733
73.733
79.733
85.733
91.733
96.733
99.733
99.733
99.733
95.733
97.733
99.733
99.733
100.73
98.733
95.733
92.733
91.733
84.733
76.733
67.733
60.733
52.733
44.733
35.733
29.733
29.733
24.733
19.733
18.733
13.733
6.7329
3.7329
-2.2671
-5.2671
-8.2671
-10.267
-9.2671
-12.267
-11.267
-15.267
-12.267
-15.267
-17.267
-20.267
-21.267
-25.267
-25.267
-24.267
-23.267
-20.267
-17.267
-17.267
-17.267
-19.267
-16.267
-18.267
-22.267
-23.267
-21.267
-15.267
-17.267
-16.267
-16.267
-12.267
-11.267
-11.267
-14.267
-15.267
-15.267
-15.267
-14.267
-14.267
-14.267
-12.267
-8.2671
-9.2671
-9.2671
-8.2671
-5.2671
-9.2671
-9.2671
-10.267
-11.267
-10.267
-12.267
-10.267
-9.2671
-10.267
-10.267
-9.2671
-11.267
-14.267
-12.267
-12.267
-13.267
-17.267
-15.267
-15.267
-13.267
-10.267
-7.2671
-10.267
-14.267
-15.267
-19.267
-21.267
-21.267
-21.267
-19.267
-18.267
-18.267
-16.267
-13.267
-13.267
-19.267
-16.267
-18.267
-18.267
-22.267
-23.267
-20.267
-21.267
-15.267
-16.267
-18.267
-14.267
-17.267
-19.267
-19.267
-18.267
-23.267
-20.267
-23.267
-20.267
-21.267
-18.267
-16.267
-16.267
-14.267
-13.267
-5.2671
-5.2671
-5.2671
0.73291
6.7329
6.7329
12.733
15.733
19.733
24.733
29.733
35.733
41.733
44.733
53.733
55.733
54.733
51.733
54.733
54.733
56.733
56.733
54.733
47.733
40.733
30.733
24.733
12.733
3.7329
-3.2671
-11.267
-13.267
-12.267
-15.267
-14.267
-15.267
-17.267
-16.267
-20.267
-21.267
-19.267
-19.267
-16.267
-17.267
-16.267
-17.267
-17.267
-19.267
-21.267
-25.267
-23.267
-22.267
-20.267
-19.267
-21.267
-18.267
-15.267
-17.267
-17.267
-15.267
-18.267
-20.267
-23.267
-25.267
-34.267
-30.267
-28.267
-19.267
5.7329
33.733
73.733
129.73
200.73
272.73
339.73
392.73
424.73
437.73
429.73
398.73
338.73
247.73
135.73
38.733
-28.267
-49.267
-36.267
-7.2671
20.733
34.733
36.733
30.733
19.733
5.7329
-6.2671
-9.2671
-18.267
-14.267
-14.267
-13.267
-14.267
-16.267
-15.267
-12.267
-11.267
-12.267
-13.267
-16.267
-16.267
-18.267
-17.267
-17.267
-18.267
-16.267
-13.267
-13.267
-13.267
-15.267
-14.267
-13.267
-15.267
-18.267
-18.267
-23.267
-19.267
-15.267
-13.267
-12.267
-9.2671
-11.267
-10.267
-12.267
-12.267
-15.267
-16.267
-16.267
-10.267
-11.267
-5.2671
-5.2671
1.7329
-1.2671
-1.2671
-3.2671
-1.2671
-2.2671
-0.26709
-1.2671
2.7329
7.7329
11.733
15.733
18.733
19.733
20.733
19.733
22.733
20.733
23.733
24.733
28.733
33.733
38.733
41.733
45.733
50.733
52.733
56.733
57.733
61.733
64.733
66.733
73.733
80.733
82.733
85.733
90.733
97.733
100.73
102.73
103.73
105.73
103.73
105.73
110.73
112.73
116.73
122.73
124.73
125.73
125.73
119.73
119.73
115.73
110.73
106.73
99.733
98.733
94.733
89.733
83.733
79.733
72.733
65.733
56.733
51.733
43.733
39.733
35.733
32.733
30.733
27.733
24.733
20.733
19.733
15.733
9.7329
7.7329
1.7329
0.73291
3.7329
4.7329
4.7329
7.7329
1.7329
0.73291
1.7329
2.7329
0.73291
0.73291
-0.26709
-0.26709
0.73291
1.7329
0.73291
0.73291
4.7329
4.7329
3.7329
3.7329
1.7329
2.7329
3.7329
6.7329
7.7329
7.7329
9.7329
12.733
13.733
10.733
11.733
11.733
12.733
11.733
12.733
20.733
32.733
52.733
82.733
111.73
143.73
177.73
213.73
250.73
289.73
334.73
382.73
426.73
472.73
511.73
542.73
570.73
588.73
593.73
596.73
591.73
582.73
568.73
555.73
538.73
523.73
521.73
522.73
527.73
530.73
527.73
508.73
483.73
452.73
414.73
367.73
306.73
238.73
162.73
83.733
19.733
-12.267
-32.267
-31.267
-28.267
-30.267
-30.267
-35.267
-49.267
-59.267
-67.267
-75.267
-78.267
-75.267
-78.267
-80.267
-87.267
-90.267
-98.267
-97.267
-101.27
-102.27
-104.27
-102.27
-106.27
-106.27
-107.27
-111.27
-112.27
-119.27
-120.27
-126.27
-126.27
-128.27
-130.27
-130.27
-131.27
-133.27
-133.27
-136.27
-136.27
-140.27
-141.27
-141.27
-143.27
-146.27
-144.27
-144.27
-140.27
-138.27
-139.27
-139.27
-136.27
-140.27
-146.27
-154.27
-160.27
-167.27
-171.27
-175.27
-180.27
-184.27
-198.27
-209.27
-224.27
-238.27
-253.27
-266.27
-273.27
-282.27
-285.27
-286.27
-288.27
-285.27
-285.27
-287.27
-288.27
-288.27
-286.27
-281.27
-278.27
-271.27
-264.27
-253.27
-243.27
-229.27
-221.27
-212.27
-202.27
-191.27
-176.27
-166.27
-157.27
-146.27
-131.27
-124.27
-113.27
-98.267
-92.267
-85.267
-79.267
-79.267
-75.267
-73.267
-68.267
-63.267
-60.267
-56.267
-55.267
-53.267
-54.267
-53.267
-55.267
-55.267
-56.267
-58.267
-57.267
-58.267
-56.267
-54.267
-52.267
-49.267
-52.267
-51.267
-52.267
-56.267
-56.267
-59.267
-59.267
-61.267
-59.267
-56.267
-51.267
-49.267
-49.267
-50.267
-53.267
-53.267
-55.267
-53.267
-55.267
-50.267
-46.267
-46.267
-43.267
-41.267
-41.267
-44.267
-47.267
-43.267
-48.267
-50.267
-48.267
-45.267
-45.267
-44.267
-43.267
-43.267
-43.267
-40.267
-44.267
-46.267
-47.267
-48.267
-47.267
-48.267
-46.267
-44.267
-44.267
-40.267
-40.267
-39.267
-43.267
-44.267
-46.267
-43.267
-42.267
-42.267
-42.267
-36.267
-38.267
-37.267
-39.267
-37.267
-42.267
-43.267
-43.267
-42.267
-45.267
-44.267
-42.267
-38.267
-38.267
-37.267
-37.267
-35.267
-37.267
-39.267
-42.267
-42.267
-42.267
-41.267
-42.267
-37.267
-37.267
-34.267
-30.267
-36.267
-36.267
-38.267
-40.267
-39.267
-40.267
-38.267
-39.267
-36.267
-37.267
-34.267
-33.267
-36.267
-39.267
-41.267
-38.267
-39.267
-41.267
-38.267
-38.267
-30.267
-32.267
-29.267
-32.267
-34.267
-37.267
-41.267
-40.267
-40.267
-39.267
-39.267
-35.267
-35.267
-34.267
-35.267
-32.267
-30.267
-31.267
-34.267
-36.267
-35.267
-37.267
-37.267
-34.267
-34.267
-31.267
-30.267
-29.267
-33.267
-32.267
-31.267
-30.267
-30.267
-35.267
-31.267
-35.267
-31.267
-30.267
-27.267
-28.267
-29.267
-30.267
-30.267
-34.267
-34.267
-33.267
-35.267
-32.267
-28.267
-29.267
-25.267
-25.267
-24.267
-27.267
-31.267
-31.267
-31.267
-34.267
-29.267
-29.267
-26.267
-25.267
-23.267
-27.267
-27.267
-29.267
-33.267
-33.267
-31.267
-32.267
-29.267
-29.267
-28.267
-26.267
-23.267
-23.267
-26.267
-27.267
-29.267
-31.267
-30.267
-28.267
-27.267
-23.267
-23.267
-23.267
-25.267
-23.267
-23.267
-28.267
-27.267
-27.267
-29.267
-27.267
-31.267
-29.267
-27.267
-26.267
-22.267
-21.267
-21.267
-21.267
-24.267
-31.267
-30.267
-30.267
-26.267
-25.267
-17.267
-18.267
-18.267
-18.267
-17.267
-20.267
-22.267
-22.267
-26.267
-26.267
-25.267
-24.267
-21.267
-20.267
-19.267
-18.267
-18.267
-18.267
-20.267
-20.267
-22.267
-21.267
-19.267
-20.267
-18.267
-15.267
-13.267
-12.267
-14.267
-14.267
-17.267
-19.267
-23.267
-26.267
-24.267
-23.267
-19.267
-16.267
-18.267
-16.267
-18.267
-18.267
-19.267
-17.267
-18.267
-16.267
-11.267
-7.2671
0.73291
2.7329
8.7329
8.7329
10.733
11.733
9.7329
12.733
15.733
19.733
24.733
32.733
42.733
48.733
51.733
54.733
52.733
50.733
41.733
46.733
46.733
43.733
45.733
44.733
38.733
31.733
24.733
12.733
-2.2671
-11.267
-18.267
-24.267
-24.267
-25.267
-28.267
-23.267
-23.267
-19.267
-17.267
-20.267
-21.267
-23.267
-26.267
-24.267
-24.267
-25.267
-26.267
-22.267
-22.267
-21.267
-21.267
-25.267
-28.267
-35.267
-38.267
-30.267
-14.267
21.733
68.733
135.73
214.73
289.73
359.73
404.73
426.73
427.73
406.73
360.73
292.73
195.73
90.733
3.7329
-43.267
-50.267
-27.267
-2.2671
21.733
31.733
26.733
11.733
-2.2671
-14.267
-22.267
-27.267
-24.267
-23.267
-18.267
-22.267
-20.267
-22.267
-25.267
-28.267
-31.267
-31.267
-33.267
-35.267
-34.267
-32.267
-30.267
-30.267
-31.267
-33.267
-32.267
-35.267
-36.267
-37.267
-35.267
-34.267
-31.267
-31.267
-31.267
-29.267
-30.267
-32.267
-33.267
-36.267
-40.267
-39.267
-39.267
-36.267
-32.267
-31.267
-32.267
-32.267
-37.267
-37.267
-37.267
-33.267
-37.267
-37.267
-33.267
-32.267
-26.267
-24.267
-21.267
-22.267
-21.267
-21.267
-21.267
-19.267
-21.267
-17.267
-15.267
-11.267
-7.2671
-5.2671
-0.26709
0.73291
4.7329
5.7329
6.7329
6.7329
8.7329
7.7329
12.733
14.733
21.733
23.733
31.733
32.733
35.733
39.733
38.733
40.733
43.733
49.733
50.733
56.733
61.733
64.733
67.733
70.733
74.733
75.733
74.733
75.733
74.733
78.733
84.733
87.733
90.733
93.733
93.733
93.733
89.733
85.733
84.733
80.733
72.733
67.733
64.733
60.733
57.733
53.733
50.733
41.733
37.733
31.733
29.733
23.733
17.733
17.733
15.733
12.733
10.733
12.733
12.733
8.7329
8.7329
4.7329
-0.26709
2.7329
0.73291
-3.2671
-2.2671
0.73291
0.73291
4.7329
5.7329
7.7329
7.7329
3.7329
4.7329
5.7329
2.7329
-0.26709
2.7329
6.7329
4.7329
8.7329
10.733
10.733
12.733
11.733
11.733
11.733
6.7329
6.7329
7.7329
6.7329
7.7329
9.7329
14.733
13.733
18.733
23.733
42.733
57.733
80.733
107.73
143.73
174.73
214.73
255.73
299.73
343.73
387.73
429.73
469.73
506.73
534.73
560.73
581.73
596.73
603.73
605.73
601.73
589.73
572.73
554.73
537.73
522.73
515.73
514.73
520.73
527.73
529.73
519.73
503.73
475.73
437.73
399.73
354.73
303.73
239.73
168.73
95.733
27.733
-16.267
-38.267
-44.267
-40.267
-42.267
-40.267
-46.267
-54.267
-66.267
-78.267
-87.267
-86.267
-90.267
-92.267
-93.267
-95.267
-99.267
-102.27
-107.27
-109.27
-112.27
-114.27
-119.27
-121.27
-119.27
-123.27
-124.27
-125.27
-128.27
-129.27
-135.27
-138.27
-142.27
-143.27
-144.27
-149.27
-147.27
-152.27
-150.27
-155.27
-159.27
-161.27
-169.27
-170.27
-175.27
-175.27
-178.27
-177.27
-175.27
-173.27
-176.27
-175.27
-180.27
-183.27
-187.27
-189.27
-188.27
-191.27
-187.27
-187.27
-185.27
-185.27
-192.27
-197.27
-208.27
-214.27
-221.27
-225.27
-229.27
-236.27
-243.27
-250.27
-256.27
-266.27
-273.27
-281.27
-289.27
-294.27
-300.27
-300.27
-303.27
-299.27
-300.27
-291.27
-287.27
-281.27
-276.27
-271.27
-261.27
-256.27
-248.27
-239.27
-232.27
-222.27
-212.27
-198.27
-187.27
-175.27
-165.27
-150.27
-142.27
-130.27
-126.27
-116.27
-111.27
-104.27
-98.267
-91.267
-83.267
-79.267
-73.267
-68.267
-70.267
-70.267
-70.267
-70.267
-71.267
-71.267
-70.267
-69.267
-66.267
-66.267
-64.267
-64.267
-63.267
-63.267
-64.267
-65.267
-67.267
-64.267
-65.267
-64.267
-63.267
-63.267
-63.267
-61.267
-58.267
-56.267
-59.267
-60.267
-59.267
-62.267
-58.267
-58.267
-57.267
-54.267
-54.267
-52.267
-54.267
-52.267
-55.267
-54.267
-55.267
-57.267
-58.267
-52.267
-52.267
-52.267
-54.267
-48.267
-48.267
-49.267
-51.267
-52.267
-55.267
-54.267
-53.267
-57.267
-50.267
-49.267
-46.267
-45.267
-46.267
-47.267
-47.267
-49.267
-49.267
-50.267
-53.267
-52.267
-47.267
-48.267
-42.267
-43.267
-42.267
-44.267
-47.267
-48.267
-50.267
-51.267
-47.267
-46.267
-46.267
-44.267
-41.267
-39.267
-43.267
-42.267
-42.267
-43.267
-45.267
-47.267
-45.267
-44.267
-44.267
-41.267
-40.267
-39.267
-38.267
-40.267
-41.267
-43.267
-45.267
-43.267
-44.267
-42.267
-44.267
-38.267
-38.267
-38.267
-37.267
-39.267
-40.267
-42.267
-44.267
-41.267
-43.267
-42.267
-38.267
-37.267
-34.267
-34.267
-35.267
-33.267
-34.267
-40.267
-39.267
-40.267
-38.267
-38.267
-37.267
-36.267
-33.267
-33.267
-37.267
-35.267
-32.267
-33.267
-37.267
-35.267
-35.267
-34.267
-31.267
-30.267
-28.267
-28.267
-27.267
-30.267
-34.267
-34.267
-37.267
-35.267
-31.267
-33.267
-29.267
-27.267
-30.267
-25.267
-24.267
-25.267
-27.267
-27.267
-29.267
-31.267
-28.267
-27.267
-24.267
-22.267
-25.267
-20.267
-22.267
-22.267
-23.267
-27.267
-27.267
-26.267
-27.267
-24.267
-27.267
-22.267
-24.267
-21.267
-22.267
-20.267
-21.267
-24.267
-22.267
-24.267
-24.267
-23.267
-21.267
-20.267
-18.267
-21.267
-16.267
-17.267
-22.267
-22.267
-24.267
-24.267
-21.267
-23.267
-18.267
-18.267
-17.267
-14.267
-17.267
-17.267
-19.267
-18.267
-20.267
-19.267
-18.267
-18.267
-17.267
-14.267
-10.267
-10.267
-11.267
-13.267
-15.267
-17.267
-17.267
-21.267
-17.267
-15.267
-15.267
-15.267
-12.267
-12.267
-14.267
-13.267
-15.267
-17.267
-14.267
-19.267
-19.267
-19.267
-14.267
-15.267
-17.267
-9.2671
-12.267
-13.267
-14.267
-13.267
-14.267
-14.267
-14.267
-14.267
-13.267
-10.267
-9.2671
-11.267
-11.267
-8.2671
-12.267
-10.267
-9.2671
-14.267
-11.267
-12.267
-12.267
-10.267
-9.2671
-5.2671
-7.2671
-6.2671
-6.2671
-7.2671
-7.2671
-8.2671
-6.2671
-4.2671
-6.2671
-4.2671
-2.2671
-6.2671
-3.2671
-2.2671
-0.26709
-0.26709
1.7329
0.73291
6.7329
9.7329
17.733
24.733
26.733
28.733
30.733
33.733
35.733
39.733
41.733
51.733
60.733
63.733
72.733
71.733
70.733
68.733
64.733
60.733
62.733
60.733
58.733
48.733
40.733
29.733
18.733
9.7329
2.7329
-2.2671
-3.2671
-5.2671
-5.2671
-7.2671
-10.267
-12.267
-11.267
-13.267
-12.267
-11.267
-7.2671
-5.2671
-6.2671
-7.2671
-9.2671
-11.267
-11.267
-10.267
-11.267
-10.267
-9.2671
-12.267
-16.267
-21.267
-21.267
-11.267
12.733
48.733
100.73
162.73
238.73
316.73
378.73
422.73
438.73
430.73
397.73
333.73
246.73
142.73
45.733
-14.267
-32.267
-21.267
4.7329
31.733
44.733
43.733
31.733
20.733
4.7329
-8.2671
-12.267
-17.267
-18.267
-14.267
-15.267
-11.267
-6.2671
-8.2671
-8.2671
-9.2671
-14.267
-17.267
-18.267
-20.267
-16.267
-17.267
-13.267
-13.267
-15.267
-14.267
-13.267
-14.267
-16.267
-17.267
-19.267
-20.267
-20.267
-18.267
-15.267
-12.267
-12.267
-12.267
-12.267
-11.267
-13.267
-17.267
-16.267
-17.267
-18.267
-16.267
-13.267
-11.267
-9.2671
-10.267
-10.267
-8.2671
-12.267
-12.267
-13.267
-13.267
-12.267
-10.267
-9.2671
-3.2671
-0.26709
1.7329
1.7329
4.7329
1.7329
0.73291
1.7329
4.7329
6.7329
11.733
15.733
21.733
25.733
27.733
28.733
31.733
32.733
31.733
35.733
35.733
40.733
41.733
45.733
50.733
55.733
62.733
65.733
63.733
67.733
70.733
71.733
71.733
75.733
80.733
82.733
89.733
93.733
99.733
99.733
100.73
103.73
105.73
103.73
106.73
103.73
105.73
105.73
106.73
106.73
101.73
96.733
87.733
86.733
79.733
76.733
70.733
62.733
57.733
57.733
52.733
51.733
48.733
44.733
38.733
34.733
29.733
25.733
24.733
20.733
22.733
20.733
21.733
19.733
18.733
18.733
16.733
17.733
14.733
11.733
8.7329
7.7329
15.733
15.733
16.733
19.733
19.733
20.733
22.733
18.733
16.733
13.733
18.733
19.733
21.733
25.733
25.733
23.733
24.733
18.733
21.733
15.733
17.733
23.733
41.733
55.733
82.733
118.73
151.73
184.73
222.73
264.73
305.73
353.73
403.73
447.73
489.73
526.73
557.73
581.73
598.73
609.73
612.73
612.73
606.73
590.73
574.73
551.73
535.73
526.73
527.73
530.73
533.73
527.73
506.73
481.73
443.73
408.73
366.73
322.73
268.73
197.73
129.73
59.733
7.7329
-20.267
-29.267
-28.267
-23.267
-25.267
-29.267
-40.267
-48.267
-56.267
-65.267
-69.267
-74.267
-79.267
-81.267
-82.267
-89.267
-92.267
-96.267
-99.267
-105.27
-105.27
-109.27
-111.27
-112.27
-112.27
-112.27
-117.27
-118.27
-124.27
-126.27
-129.27
-130.27
-134.27
-131.27
-132.27
-129.27
-127.27
-127.27
-127.27
-128.27
-132.27
-135.27
-139.27
-137.27
-136.27
-131.27
-128.27
-130.27
-131.27
-137.27
-144.27
-153.27
-162.27
-169.27
-174.27
-185.27
-193.27
-207.27
-223.27
-235.27
-248.27
-259.27
-271.27
-279.27
-287.27
-293.27
-295.27
-299.27
-301.27
-302.27
-302.27
-299.27
-297.27
-295.27
-292.27
-294.27
-289.27
-287.27
-281.27
-276.27
-272.27
-261.27
-248.27
-239.27
-230.27
-216.27
-210.27
-199.27
-189.27
-180.27
-170.27
-159.27
-149.27
-141.27
-127.27
-115.27
-105.27
-96.267
-91.267
-87.267
-84.267
-81.267
-78.267
-76.267
-76.267
-74.267
-65.267
-64.267
-61.267
-62.267
-63.267
-61.267
-65.267
-64.267
-67.267
-64.267
-68.267
-69.267
-65.267
-63.267
-62.267
-60.267
-59.267
-60.267
-59.267
-61.267
-61.267
-64.267
-64.267
-61.267
-58.267
-55.267
-54.267
-52.267
-51.267
-51.267
-54.267
-57.267
-59.267
-60.267
-58.267
-57.267
-52.267
-50.267
-48.267
-47.267
-47.267
-49.267
-52.267
-54.267
-51.267
-53.267
-52.267
-51.267
-55.267
-51.267
-50.267
-47.267
-48.267
-47.267
-47.267
-49.267
-55.267
-54.267
-55.267
-53.267
-50.267
-49.267
-46.267
-46.267
-45.267
-46.267
-47.267
-48.267
-47.267
-46.267
-49.267
-46.267
-47.267
-46.267
-43.267
-42.267
-42.267
-43.267
-43.267
-44.267
-48.267
-46.267
-46.267
-48.267
-48.267
-42.267
-42.267
-38.267
-40.267
-38.267
-38.267
-47.267
-48.267
-49.267
-50.267
-49.267
-49.267
-45.267
-42.267
-39.267
-38.267
-38.267
-40.267
-42.267
-40.267
-45.267
-45.267
-45.267
-42.267
-38.267
-37.267
-33.267
-35.267
-38.267
-39.267
-40.267
-38.267
-39.267
-41.267
-39.267
-37.267
-37.267
-36.267
-38.267
-37.267
-36.267
-35.267
-36.267
-36.267
-34.267
-39.267
-37.267
-36.267
-34.267
-34.267
-31.267
-32.267
-33.267
-34.267
-34.267
-35.267
-34.267
-35.267
-34.267
-31.267
-29.267
-28.267
-27.267
-29.267
-31.267
-29.267
-32.267
-35.267
-33.267
-36.267
-34.267
-30.267
-28.267
-28.267
-23.267
-27.267
-26.267
-32.267
-32.267
-33.267
-31.267
-32.267
-31.267
-29.267
-29.267
-29.267
-28.267
-29.267
-26.267
-27.267
-29.267
-29.267
-32.267
-33.267
-32.267
-32.267
-27.267
-26.267
-24.267
-28.267
-26.267
-25.267
-28.267
-28.267
-30.267
-30.267
-29.267
-26.267
-26.267
-21.267
-21.267
-21.267
-22.267
-22.267
-24.267
-26.267
-25.267
-24.267
-26.267
-24.267
-24.267
-20.267
-20.267
-23.267
-28.267
-29.267
-29.267
-28.267
-27.267
-26.267
-25.267
-24.267
-20.267
-19.267
-17.267
-17.267
-20.267
-20.267
-23.267
-23.267
-22.267
-23.267
-26.267
-21.267
-21.267
-19.267
-20.267
-19.267
-19.267
-22.267
-22.267
-22.267
-23.267
-23.267
-23.267
-20.267
-17.267
-20.267
-16.267
-21.267
-21.267
-20.267
-20.267
-23.267
-23.267
-23.267
-19.267
-19.267
-18.267
-20.267
-15.267
-13.267
-13.267
-18.267
-17.267
-20.267
-19.267
-14.267
-12.267
-14.267
-13.267
-8.2671
-7.2671
-9.2671
-11.267
-10.267
-12.267
-11.267
-10.267
-14.267
-13.267
-9.2671
-7.2671
-1.2671
-2.2671
-2.2671
2.7329
4.7329
6.7329
6.7329
10.733
13.733
16.733
19.733
21.733
24.733
32.733
36.733
41.733
50.733
54.733
61.733
65.733
63.733
63.733
62.733
62.733
63.733
64.733
63.733
58.733
54.733
38.733
27.733
17.733
10.733
0.73291
-3.2671
-4.2671
-5.2671
-4.2671
-2.2671
-4.2671
-5.2671
-8.2671
-10.267
-11.267
-10.267
-14.267
-8.2671
-8.2671
-7.2671
-3.2671
-1.2671
-1.2671
-5.2671
-5.2671
-8.2671
-8.2671
-11.267
-13.267
-17.267
-19.267
-20.267
-11.267
4.7329
35.733
77.733
132.73
200.73
270.73
344.73
402.73
439.73
450.73
446.73
410.73
347.73
251.73
139.73
43.733
-16.267
-29.267
-13.267
12.733
38.733
46.733
48.733
38.733
24.733
10.733
2.7329
-7.2671
-7.2671
-7.2671
-9.2671
-9.2671
-6.2671
-8.2671
-2.2671
-5.2671
-8.2671
-11.267
-10.267
-14.267
-13.267
-14.267
-14.267
-10.267
-7.2671
-8.2671
-11.267
-5.2671
-6.2671
-8.2671
-9.2671
-11.267
-10.267
-10.267
-12.267
-9.2671
-8.2671
-7.2671
-5.2671
-3.2671
-3.2671
-5.2671
-8.2671
-9.2671
-9.2671
-5.2671
-7.2671
-5.2671
-1.2671
-2.2671
-1.2671
2.7329
1.7329
3.7329
2.7329
4.7329
3.7329
1.7329
0.73291
5.7329
6.7329
8.7329
13.733
17.733
20.733
18.733
20.733
23.733
20.733
22.733
25.733
29.733
33.733
35.733
39.733
44.733
50.733
48.733
54.733
55.733
58.733
60.733
62.733
66.733
73.733
76.733
82.733
88.733
89.733
90.733
89.733
90.733
94.733
94.733
102.73
105.73
111.73
112.73
116.73
121.73
118.73
117.73
116.73
113.73
110.73
112.73
107.73
103.73
101.73
100.73
98.733
97.733
92.733
85.733
76.733
72.733
69.733
65.733
63.733
57.733
53.733
52.733
52.733
52.733
47.733
45.733
41.733
38.733
35.733
33.733
31.733
32.733
32.733
31.733
31.733
32.733
32.733
29.733
32.733
29.733
28.733
26.733
27.733
26.733
27.733
30.733
32.733
31.733
31.733
33.733
30.733
29.733
33.733
28.733
28.733
31.733
31.733
33.733
33.733
34.733
33.733
36.733
36.733
36.733
34.733
36.733
35.733
35.733
35.733
33.733
34.733
35.733
33.733
31.733
28.733
30.733
36.733
50.733
68.733
92.733
125.73
157.73
190.73
233.73
273.73
316.73
357.73
399.73
445.73
485.73
521.73
551.73
579.73
598.73
610.73
613.73
611.73
602.73
591.73
574.73
557.73
548.73
541.73
545.73
545.73
546.73
539.73
530.73
506.73
477.73
438.73
397.73
352.73
297.73
231.73
156.73
83.733
27.733
-6.2671
-20.267
-16.267
-15.267
-13.267
-16.267
-27.267
-39.267
-51.267
-60.267
-64.267
-65.267
-65.267
-70.267
-69.267
-71.267
-79.267
-80.267
-86.267
-87.267
-90.267
-91.267
-92.267
-90.267
-91.267
-91.267
-90.267
-93.267
-93.267
-93.267
-92.267
-94.267
-97.267
-99.267
-98.267
-95.267
-94.267
-91.267
-85.267
-84.267
-81.267
-83.267
-85.267
-90.267
-99.267
-103.27
-109.27
-110.27
-112.27
-115.27
-122.27
-136.27
-151.27
-166.27
-179.27
-194.27
-205.27
-220.27
-229.27
-234.27
-242.27
-245.27
-250.27
-255.27
-262.27
-269.27
-278.27
-277.27
-283.27
-286.27
-286.27
-290.27
-291.27
-292.27
-294.27
-292.27
-291.27
-290.27
-288.27
-286.27
-281.27
-275.27
-268.27
-261.27
-253.27
-243.27
-237.27
-227.27
-220.27
-210.27
-201.27
-187.27
-177.27
-163.27
-150.27
-139.27
-125.27
-115.27
-106.27
-99.267
-92.267
-86.267
-80.267
-78.267
-74.267
-71.267
-64.267
-61.267
-55.267
-49.267
-51.267
-48.267
-50.267
-52.267
-57.267
-55.267
-60.267
-57.267
-56.267
-53.267
-49.267
-48.267
-48.267
-47.267
-48.267
-51.267
-50.267
-52.267
-52.267
-51.267
-50.267
-47.267
-48.267
-44.267
-43.267
-44.267
-39.267
-45.267
-45.267
-47.267
-49.267
-48.267
-42.267
-39.267
-38.267
-36.267
-34.267
-40.267
-39.267
-42.267
-41.267
-42.267
-41.267
-41.267
-36.267
-36.267
-36.267
-35.267
-33.267
-32.267
-36.267
-40.267
-38.267
-39.267
-39.267
-34.267
-37.267
-34.267
-36.267
-31.267
-33.267
-31.267
-32.267
-32.267
-33.267
-34.267
-36.267
-33.267
-34.267
-34.267
-35.267
-31.267
-30.267
-33.267
-29.267
-32.267
-34.267
-33.267
-32.267
-31.267
-33.267
-32.267
-31.267
-26.267
-28.267
-28.267
-31.267
-33.267
-33.267
-34.267
-34.267
-32.267
-35.267
-28.267
-28.267
-24.267
-22.267
-24.267
-25.267
-27.267
-28.267
-26.267
-29.267
-28.267
-25.267
-27.267
-26.267
-23.267
-24.267
-25.267
-26.267
-27.267
-26.267
-28.267
-28.267
-29.267
-25.267
-24.267
-21.267
-19.267
-19.267
-19.267
-19.267
-24.267
-25.267
-29.267
-27.267
-25.267
-22.267
-24.267
-21.267
-17.267
-19.267
-19.267
-22.267
-25.267
-24.267
-26.267
-25.267
-25.267
-23.267
-25.267
-25.267
-22.267
-18.267
-19.267
-19.267
-21.267
-21.267
-22.267
-22.267
-22.267
-21.267
-21.267
-19.267
-16.267
-16.267
-15.267
-17.267
-18.267
-18.267
-20.267
-24.267
-21.267
-21.267
-20.267
-21.267
-15.267
-14.267
-16.267
-17.267
-21.267
-23.267
-25.267
-22.267
-22.267
-21.267
-18.267
-21.267
-19.267
-14.267
-16.267
-16.267
-22.267
-20.267
-23.267
-24.267
-25.267
-24.267
-23.267
-15.267
-16.267
-17.267
-18.267
-16.267
-18.267
-19.267
-20.267
-22.267
-23.267
-19.267
-17.267
-16.267
-15.267
-14.267
-18.267
-18.267
-21.267
-24.267
-18.267
-19.267
-22.267
-21.267
-18.267
-15.267
-16.267
-13.267
-17.267
-18.267
-21.267
-18.267
-17.267
-18.267
-13.267
-12.267
-14.267
-11.267
-11.267
-7.2671
-8.2671
-10.267
-11.267
-15.267
-16.267
-19.267
-17.267
-15.267
-15.267
-13.267
-9.2671
-8.2671
-8.2671
-11.267
-10.267
-10.267
-12.267
-12.267
-11.267
-11.267
-8.2671
-8.2671
-10.267
-7.2671
-7.2671
-6.2671
-4.2671
-7.2671
-1.2671
0.73291
1.7329
5.7329
10.733
16.733
21.733
21.733
23.733
22.733
28.733
29.733
35.733
43.733
52.733
63.733
67.733
67.733
65.733
63.733
59.733
61.733
59.733
55.733
48.733
40.733
32.733
22.733
15.733
5.7329
-2.2671
-4.2671
-8.2671
-7.2671
-10.267
-9.2671
-13.267
-11.267
-12.267
-10.267
-10.267
-8.2671
-5.2671
-7.2671
-8.2671
-10.267
-15.267
-13.267
-13.267
-14.267
-15.267
-10.267
-13.267
-14.267
-18.267
-19.267
-24.267
-14.267
0.73291
31.733
73.733
126.73
198.73
277.73
347.73
406.73
441.73
455.73
444.73
407.73
343.73
249.73
136.73
39.733
-18.267
-37.267
-18.267
10.733
35.733
48.733
47.733
30.733
15.733
0.73291
-7.2671
-13.267
-13.267
-7.2671
-6.2671
-6.2671
-6.2671
-7.2671
-8.2671
-12.267
-14.267
-16.267
-19.267
-17.267
-17.267
-20.267
-19.267
-15.267
-17.267
-15.267
-17.267
-16.267
-21.267
-19.267
-25.267
-24.267
-25.267
-24.267
-22.267
-19.267
-19.267
-19.267
-17.267
-18.267
-18.267
-17.267
-17.267
-22.267
-21.267
-20.267
-16.267
-15.267
-15.267
-12.267
-12.267
-11.267
-13.267
-16.267
-16.267
-14.267
-15.267
-12.267
-11.267
-6.2671
-4.2671
-2.2671
-0.26709
-1.2671
-0.26709
-2.2671
-1.2671
0.73291
-0.26709
4.7329
8.7329
12.733
15.733
17.733
19.733
18.733
18.733
20.733
22.733
23.733
27.733
30.733
35.733
40.733
46.733
49.733
49.733
51.733
55.733
55.733
58.733
60.733
63.733
67.733
72.733
74.733
80.733
84.733
86.733
89.733
87.733
90.733
91.733
97.733
97.733
99.733
104.73
105.73
111.73
112.73
113.73
106.73
108.73
102.73
96.733
91.733
87.733
84.733
78.733
77.733
71.733
71.733
66.733
62.733
54.733
47.733
44.733
39.733
37.733
38.733
38.733
35.733
34.733
32.733
31.733
29.733
24.733
23.733
23.733
23.733
21.733
22.733
21.733
23.733
25.733
26.733
26.733
24.733
24.733
22.733
21.733
22.733
24.733
25.733
27.733
28.733
29.733
30.733
28.733
27.733
28.733
29.733
28.733
28.733
29.733
32.733
29.733
31.733
35.733
37.733
36.733
36.733
33.733
33.733
32.733
29.733
29.733
27.733
27.733
29.733
30.733
29.733
30.733
32.733
35.733
46.733
60.733
83.733
112.73
139.73
171.73
204.73
243.73
283.73
325.73
370.73
413.73
451.73
491.73
521.73
550.73
576.73
593.73
607.73
610.73
613.73
612.73
606.73
594.73
578.73
566.73
557.73
552.73
553.73
559.73
561.73
562.73
549.73
526.73
497.73
460.73
421.73
372.73
313.73
241.73
162.73
85.733
31.733
-7.2671
-16.267
-20.267
-21.267
-19.267
-22.267
-31.267
-39.267
-51.267
-58.267
-62.267
-63.267
-65.267
-66.267
-70.267
-74.267
-77.267
-79.267
-83.267
-88.267
-90.267
-92.267
-93.267
-97.267
-94.267
-94.267
-95.267
-96.267
-97.267
-98.267
-99.267
-102.27
-99.267
-102.27
-101.27
-100.27
-97.267
-92.267
-91.267
-89.267
-90.267
-92.267
-99.267
-101.27
-109.27
-112.27
-117.27
-118.27
-121.27
-126.27
-135.27
-149.27
-167.27
-184.27
-203.27
-217.27
-233.27
-245.27
-249.27
-255.27
-255.27
-260.27
-266.27
-272.27
-276.27
-286.27
-292.27
-293.27
-295.27
-298.27
-299.27
-298.27
-299.27
-295.27
-294.27
-293.27
-290.27
-291.27
-289.27
-283.27
-282.27
-275.27
-266.27
-259.27
-246.27
-237.27
-230.27
-219.27
-210.27
-200.27
-193.27
-179.27
-171.27
-159.27
-147.27
-134.27
-120.27
-110.27
-100.27
-90.267
-86.267
-79.267
-75.267
-71.267
-64.267
-60.267
-55.267
-51.267
-46.267
-42.267
-45.267
-43.267
-44.267
-47.267
-50.267
-49.267
-49.267
-49.267
-47.267
-48.267
-45.267
-42.267
-46.267
-42.267
-42.267
-45.267
-45.267
-44.267
-43.267
-44.267
-45.267
-41.267
-40.267
-40.267
-35.267
-38.267
-38.267
-45.267
-43.267
-42.267
-43.267
-43.267
-39.267
-38.267
-37.267
-35.267
-33.267
-31.267
-33.267
-33.267
-35.267
-36.267
-36.267
-33.267
-32.267
-30.267
-31.267
-28.267
-30.267
-26.267
-31.267
-32.267
-34.267
-33.267
-31.267
-33.267
-29.267
-27.267
-25.267
-22.267
-24.267
-25.267
-26.267
-27.267
-28.267
-33.267
-31.267
-29.267
-27.267
-27.267
-24.267
-18.267
-19.267
-21.267
-22.267
-25.267
-24.267
-24.267
-23.267
-24.267
-22.267
-21.267
-21.267
-13.267
-17.267
-16.267
-17.267
-21.267
-26.267
-22.267
-23.267
-24.267
-22.267
-18.267
-16.267
-10.267
-12.267
-18.267
-20.267
-17.267
-20.267
-19.267
-15.267
-18.267
-15.267
-12.267
-11.267
-13.267
-18.267
-18.267
-18.267
-19.267
-21.267
-17.267
-19.267
-18.267
-15.267
-14.267
-10.267
-7.2671
-9.2671
-11.267
-13.267
-14.267
-14.267
-13.267
-10.267
-12.267
-11.267
-8.2671
-9.2671
-8.2671
-6.2671
-9.2671
-9.2671
-11.267
-13.267
-14.267
-15.267
-13.267
-10.267
-7.2671
-5.2671
-6.2671
-4.2671
-10.267
-10.267
-12.267
-12.267
-11.267
-15.267
-13.267
-11.267
-11.267
-4.2671
-4.2671
-8.2671
-8.2671
-9.2671
-12.267
-13.267
-18.267
-16.267
-15.267
-7.2671
-5.2671
-7.2671
-2.2671
-6.2671
-7.2671
-6.2671
-10.267
-14.267
-15.267
-11.267
-11.267
-11.267
-9.2671
-8.2671
-8.2671
-8.2671
-9.2671
-9.2671
-10.267
-6.2671
-11.267
-12.267
-12.267
-10.267
-9.2671
-8.2671
-6.2671
-7.2671
-8.2671
-8.2671
-7.2671
-8.2671
-7.2671
-6.2671
-8.2671
-6.2671
-6.2671
-7.2671
-6.2671
-7.2671
-3.2671
-3.2671
-5.2671
-6.2671
-7.2671
-8.2671
-11.267
-8.2671
-7.2671
-4.2671
-4.2671
-1.2671
-2.2671
-4.2671
-7.2671
-5.2671
-8.2671
-8.2671
-5.2671
-3.2671
1.7329
-2.2671
1.7329
-4.2671
-4.2671
-7.2671
-7.2671
-7.2671
-8.2671
-9.2671
-10.267
-7.2671
-7.2671
-4.2671
-0.26709
-0.26709
-3.2671
-1.2671
-4.2671
-5.2671
-2.2671
-5.2671
-3.2671
-2.2671
1.7329
0.73291
-1.2671
-1.2671
-2.2671
0.73291
-0.26709
-4.2671
-5.2671
-2.2671
-0.26709
7.7329
16.733
25.733
29.733
30.733
32.733
32.733
35.733
38.733
42.733
49.733
57.733
66.733
70.733
72.733
73.733
71.733
66.733
67.733
65.733
65.733
66.733
60.733
53.733
42.733
35.733
29.733
17.733
8.7329
1.7329
-4.2671
-6.2671
-6.2671
-5.2671
-6.2671
-8.2671
-8.2671
-8.2671
-4.2671
-4.2671
-4.2671
-2.2671
-7.2671
-11.267
-11.267
-12.267
-11.267
-11.267
-8.2671
-4.2671
-7.2671
-9.2671
-14.267
-17.267
-19.267
-14.267
7.7329
39.733
83.733
144.73
217.73
298.73
366.73
419.73
447.73
453.73
433.73
386.73
315.73
212.73
106.73
17.733
-26.267
-31.267
-10.267
19.733
41.733
49.733
43.733
26.733
13.733
-0.26709
-7.2671
-10.267
-10.267
-9.2671
-7.2671
-4.2671
-5.2671
-5.2671
-9.2671
-12.267
-11.267
-13.267
-15.267
-17.267
-16.267
-15.267
-13.267
-11.267
-14.267
-17.267
-17.267
-19.267
-18.267
-21.267
-19.267
-15.267
-15.267
-11.267
-11.267
-8.2671
-14.267
-10.267
-13.267
-16.267
-14.267
-12.267
-16.267
-14.267
-10.267
-10.267
-8.2671
-6.2671
-3.2671
-6.2671
-6.2671
-9.2671
-11.267
-8.2671
-10.267
-6.2671
-4.2671
-0.26709
0.73291
3.7329
5.7329
5.7329
5.7329
4.7329
1.7329
5.7329
7.7329
10.733
11.733
13.733
17.733
21.733
24.733
28.733
29.733
29.733
29.733
32.733
33.733
39.733
43.733
49.733
53.733
55.733
58.733
62.733
62.733
58.733
64.733
63.733
65.733
68.733
70.733
79.733
84.733
86.733
88.733
91.733
93.733
88.733
93.733
92.733
95.733
98.733
102.73
104.73
108.73
111.73
112.73
111.73
107.73
105.73
99.733
96.733
92.733
87.733
82.733
85.733
82.733
80.733
79.733
72.733
65.733
58.733
52.733
47.733
46.733
41.733
43.733
43.733
38.733
39.733
40.733
35.733
31.733
26.733
27.733
26.733
25.733
26.733
27.733
29.733
26.733
30.733
29.733
29.733
29.733
27.733
27.733
26.733
25.733
26.733
32.733
34.733
38.733
38.733
39.733
37.733
39.733
36.733
35.733
31.733
29.733
32.733
32.733
34.733
33.733
42.733
46.733
57.733
69.733
87.733
113.73
142.73
174.73
209.73
247.73
293.73
339.73
383.73
429.73
476.73
519.73
555.73
582.73
608.73
626.73
637.73
645.73
643.73
642.73
632.73
616.73
593.73
574.73
563.73
552.73
554.73
560.73
565.73
562.73
555.73
539.73
513.73
479.73
444.73
399.73
349.73
287.73
213.73
134.73
66.733
13.733
-11.267
-18.267
-12.267
-9.2671
-7.2671
-12.267
-20.267
-35.267
-45.267
-57.267
-63.267
-66.267
-65.267
-65.267
-67.267
-70.267
-72.267
-78.267
-82.267
-84.267
-88.267
-92.267
-95.267
-96.267
-98.267
-97.267
-96.267
-98.267
-101.27
-104.27
-108.27
-112.27
-113.27
-116.27
-119.27
-119.27
-123.27
-124.27
-127.27
-129.27
-134.27
-135.27
-141.27
-144.27
-151.27
-153.27
-155.27
-156.27
-156.27
-156.27
-156.27
-159.27
-156.27
-158.27
-162.27
-166.27
-172.27
-174.27
-175.27
-167.27
-164.27
-164.27
-165.27
-170.27
-179.27
-188.27
-199.27
-204.27
-212.27
-216.27
-221.27
-229.27
-235.27
-247.27
-252.27
-259.27
-269.27
-274.27
-284.27
-284.27
-286.27
-282.27
-276.27
-272.27
-266.27
-261.27
-250.27
-246.27
-236.27
-230.27
-222.27
-214.27
-205.27
-198.27
-185.27
-173.27
-163.27
-151.27
-135.27
-123.27
-112.27
-104.27
-98.267
-87.267
-82.267
-75.267
-67.267
-61.267
-55.267
-47.267
-42.267
-39.267
-37.267
-35.267
-37.267
-35.267
-36.267
-38.267
-37.267
-38.267
-35.267
-31.267
-31.267
-28.267
-30.267
-28.267
-33.267
-31.267
-32.267
-34.267
-30.267
-30.267
-26.267
-28.267
-25.267
-25.267
-25.267
-25.267
-26.267
-27.267
-24.267
-26.267
-26.267
-25.267
-24.267
-22.267
-22.267
-22.267
-19.267
-24.267
-23.267
-24.267
-28.267
-28.267
-29.267
-25.267
-24.267
-24.267
-21.267
-17.267
-18.267
-17.267
-21.267
-23.267
-24.267
-23.267
-22.267
-20.267
-22.267
-21.267
-16.267
-16.267
-16.267
-16.267
-21.267
-22.267
-22.267
-24.267
-23.267
-19.267
-15.267
-14.267
-16.267
-13.267
-16.267
-15.267
-17.267
-21.267
-19.267
-20.267
-21.267
-19.267
-20.267
-19.267
-15.267
-13.267
-13.267
-13.267
-15.267
-17.267
-15.267
-18.267
-16.267
-16.267
-14.267
-13.267
-12.267
-10.267
-11.267
-12.267
-13.267
-15.267
-16.267
-15.267
-15.267
-14.267
-13.267
-13.267
-11.267
-8.2671
-12.267
-10.267
-10.267
-12.267
-14.267
-12.267
-11.267
-9.2671
-5.2671
-4.2671
-4.2671
-5.2671
-4.2671
-6.2671
-8.2671
-7.2671
-9.2671
-6.2671
-9.2671
-8.2671
-3.2671
-3.2671
-1.2671
0.73291
-3.2671
-6.2671
-2.2671
-9.2671
-10.267
-6.2671
-5.2671
-4.2671
-0.26709
-1.2671
1.7329
2.7329
2.7329
2.7329
1.7329
-2.2671
-2.2671
-0.26709
-4.2671
-0.26709
-0.26709
2.7329
1.7329
2.7329
2.7329
1.7329
1.7329
-5.2671
-4.2671
-4.2671
-0.26709
-0.26709
0.73291
1.7329
2.7329
4.7329
3.7329
1.7329
1.7329
-0.26709
-2.2671
-1.2671
-3.2671
-2.2671
2.7329
1.7329
4.7329
3.7329
-0.26709
3.7329
-0.26709
-2.2671
-1.2671
1.7329
1.7329
-0.26709
4.7329
7.7329
7.7329
5.7329
7.7329
7.7329
3.7329
0.73291
2.7329
-1.2671
1.7329
2.7329
5.7329
6.7329
9.7329
9.7329
8.7329
9.7329
2.7329
2.7329
3.7329
2.7329
4.7329
5.7329
9.7329
10.733
7.7329
9.7329
10.733
6.7329
5.7329
1.7329
1.7329
2.7329
2.7329
2.7329
5.7329
7.7329
10.733
12.733
13.733
14.733
10.733
10.733
7.7329
6.7329
7.7329
3.7329
5.7329
10.733
12.733
11.733
12.733
10.733
7.7329
5.7329
4.7329
9.7329
8.7329
9.7329
8.7329
12.733
13.733
15.733
13.733
13.733
11.733
12.733
10.733
10.733
12.733
7.7329
9.7329
16.733
17.733
17.733
16.733
15.733
15.733
14.733
11.733
9.7329
9.7329
13.733
16.733
21.733
24.733
26.733
31.733
32.733
33.733
34.733
37.733
34.733
38.733
41.733
47.733
52.733
57.733
68.733
74.733
79.733
84.733
88.733
86.733
85.733
82.733
84.733
86.733
86.733
86.733
87.733
73.733
65.733
54.733
38.733
29.733
18.733
12.733
9.7329
10.733
10.733
16.733
17.733
17.733
14.733
11.733
11.733
6.7329
4.7329
7.7329
9.7329
10.733
14.733
13.733
16.733
13.733
14.733
10.733
8.7329
1.7329
-7.2671
-7.2671
-5.2671
8.7329
34.733
73.733
128.73
196.73
274.73
348.73
411.73
450.73
464.73
457.73
420.73
362.73
271.73
165.73
71.733
12.733
-7.2671
-1.2671
25.733
49.733
62.733
59.733
50.733
38.733
28.733
21.733
17.733
15.733
11.733
9.7329
10.733
8.7329
6.7329
2.7329
2.7329
1.7329
3.7329
5.7329
5.7329
5.7329
5.7329
4.7329
1.7329
1.7329
0.73291
-1.2671
2.7329
3.7329
4.7329
4.7329
7.7329
8.7329
5.7329
0.73291
-0.26709
-3.2671
-3.2671
1.7329
0.73291
4.7329
6.7329
7.7329
12.733
