40.334
34.334
40.334
50.334
54.334
55.334
52.334
35.334
28.334
33.334
38.334
35.334
40.334
46.334
50.334
52.334
55.334
57.334
46.334
32.334
26.334
26.334
35.334
39.334
44.334
46.334
45.334
40.334
42.334
53.334
43.334
35.334
37.334
42.334
44.334
49.334
51.334
42.334
36.334
34.334
37.334
38.334
49.334
52.334
44.334
30.334
29.334
34.334
42.334
45.334
41.334
39.334
30.334
33.334
42.334
44.334
38.334
30.334
31.334
47.334
57.334
54.334
44.334
36.334
25.334
26.334
35.334
42.334
46.334
48.334
48.334
41.334
34.334
33.334
41.334
39.334
38.334
45.334
54.334
64.334
69.334
72.334
75.334
70.334
66.334
62.334
56.334
56.334
65.334
69.334
63.334
51.334
46.334
50.334
44.334
38.334
36.334
40.334
40.334
34.334
28.334
26.334
26.334
30.334
30.334
43.334
61.334
85.334
120.33
175.33
222.33
242.33
246.33
227.33
127.33
-37.666
-162.67
-221.67
-207.67
-174.67
-124.67
-70.666
-26.666
-13.666
-5.6658
12.334
20.334
28.334
23.334
13.334
13.334
18.334
25.334
23.334
21.334
20.334
13.334
21.334
26.334
29.334
28.334
28.334
28.334
29.334
16.334
18.334
24.334
16.334
14.334
30.334
33.334
22.334
12.334
6.3342
2.3342
5.3342
11.334
7.3342
-4.6658
-17.666
-17.666
-19.666
-17.666
-24.666
-24.666
-28.666
-31.666
-37.666
-44.666
-48.666
-57.666
-61.666
-71.666
-70.666
-58.666
-51.666
-59.666
-71.666
-77.666
-79.666
-72.666
-58.666
-55.666
-41.666
-28.666
-27.666
-21.666
-9.6658
14.334
30.334
35.334
31.334
20.334
15.334
26.334
45.334
63.334
59.334
46.334
48.334
54.334
48.334
49.334
55.334
58.334
57.334
67.334
72.334
65.334
56.334
47.334
48.334
54.334
61.334
68.334
54.334
45.334
45.334
54.334
58.334
64.334
76.334
78.334
62.334
59.334
56.334
66.334
77.334
67.334
51.334
41.334
41.334
45.334
51.334
59.334
57.334
52.334
43.334
46.334
54.334
56.334
66.334
76.334
71.334
57.334
48.334
56.334
60.334
55.334
41.334
33.334
36.334
43.334
48.334
53.334
57.334
56.334
61.334
61.334
49.334
46.334
50.334
53.334
49.334
43.334
42.334
51.334
63.334
64.334
58.334
48.334
41.334
36.334
32.334
39.334
46.334
59.334
61.334
59.334
74.334
84.334
82.334
82.334
72.334
75.334
85.334
93.334
95.334
89.334
84.334
80.334
69.334
56.334
57.334
64.334
70.334
58.334
41.334
27.334
29.334
44.334
49.334
57.334
58.334
53.334
62.334
84.334
101.33
136.33
182.33
234.33
280.33
308.33
288.33
169.33
5.3342
-125.67
-183.67
-187.67
-167.67
-139.67
-92.666
-41.666
-1.6658
15.334
20.334
33.334
41.334
39.334
42.334
45.334
34.334
24.334
28.334
33.334
32.334
35.334
38.334
40.334
35.334
29.334
30.334
36.334
46.334
34.334
16.334
23.334
26.334
30.334
30.334
24.334
15.334
18.334
21.334
19.334
12.334
10.334
14.334
4.3342
-8.6658
-1.6658
-1.6658
-5.6658
-2.6658
-16.666
-29.666
-38.666
-44.666
-56.666
-62.666
-61.666
-56.666
-54.666
-62.666
-72.666
-81.666
-81.666
-71.666
-63.666
-62.666
-60.666
-67.666
-73.666
-74.666
-59.666
-51.666
-40.666
-25.666
-17.666
4.3342
8.3342
-2.6658
-3.6658
11.334
19.334
19.334
24.334
26.334
37.334
42.334
45.334
39.334
27.334
34.334
56.334
60.334
54.334
41.334
36.334
34.334
38.334
35.334
41.334
43.334
42.334
43.334
47.334
51.334
48.334
47.334
53.334
53.334
47.334
47.334
36.334
31.334
38.334
42.334
36.334
35.334
38.334
35.334
32.334
36.334
36.334
38.334
47.334
52.334
51.334
43.334
32.334
26.334
25.334
38.334
35.334
34.334
29.334
21.334
18.334
22.334
32.334
39.334
35.334
33.334
28.334
30.334
33.334
28.334
29.334
24.334
33.334
37.334
43.334
39.334
44.334
50.334
41.334
24.334
20.334
31.334
35.334
33.334
42.334
45.334
36.334
27.334
22.334
25.334
27.334
38.334
44.334
53.334
59.334
63.334
58.334
55.334
61.334
64.334
64.334
64.334
62.334
62.334
70.334
78.334
72.334
66.334
53.334
45.334
39.334
37.334
33.334
19.334
15.334
14.334
18.334
23.334
31.334
42.334
48.334
59.334
75.334
116.33
179.33
228.33
254.33
266.33
223.33
94.334
-61.666
-171.67
-211.67
-194.67
-170.67
-138.67
-101.67
-69.666
-37.666
-6.6658
11.334
27.334
38.334
41.334
26.334
14.334
1.3342
-5.6658
1.3342
8.3342
14.334
22.334
24.334
20.334
15.334
17.334
14.334
6.3342
3.3342
6.3342
4.3342
1.3342
7.3342
5.3342
9.3342
13.334
12.334
3.3342
8.3342
7.3342
16.334
4.3342
-18.666
-29.666
-33.666
-38.666
-48.666
-52.666
-50.666
-58.666
-62.666
-60.666
-64.666
-67.666
-69.666
-65.666
-68.666
-83.666
-97.666
-106.67
-101.67
-99.666
-100.67
-99.666
-96.666
-96.666
-95.666
-99.666
-93.666
-73.666
-57.666
-58.666
-49.666
-33.666
-19.666
-5.6658
0.3342
-12.666
-16.666
-3.6658
7.3342
11.334
15.334
7.3342
5.3342
6.3342
13.334
16.334
24.334
25.334
19.334
16.334
23.334
28.334
32.334
35.334
35.334
26.334
15.334
12.334
17.334
19.334
30.334
32.334
36.334
29.334
20.334
12.334
21.334
23.334
25.334
15.334
7.3342
-1.6658
1.3342
11.334
18.334
19.334
15.334
11.334
9.3342
7.3342
7.3342
10.334
5.3342
2.3342
8.3342
25.334
25.334
12.334
10.334
0.3342
3.3342
-2.6658
-5.6658
-5.6658
0.3342
4.3342
-2.6658
4.3342
7.3342
13.334
10.334
9.3342
7.3342
1.3342
-5.6658
-9.6658
-8.6658
-3.6658
4.3342
8.3342
2.3342
2.3342
3.3342
-5.6658
-10.666
-5.6658
0.3342
6.3342
3.3342
2.3342
2.3342
7.3342
6.3342
9.3342
16.334
19.334
19.334
27.334
22.334
12.334
13.334
22.334
27.334
26.334
37.334
39.334
23.334
12.334
1.3342
1.3342
-11.666
-13.666
-7.6658
-2.6658
-6.6658
-3.6658
-11.666
-31.666
-32.666
-12.666
-3.6658
5.3342
26.334
72.334
142.33
193.33
219.33
229.33
181.33
54.334
-105.67
-207.67
-247.67
-235.67
-201.67
-158.67
-114.67
-71.666
-50.666
-43.666
-40.666
-37.666
-33.666
-26.666
-23.666
-15.666
-9.6658
-6.6658
-14.666
-9.6658
-13.666
-12.666
-9.6658
0.3342
-13.666
-28.666
-28.666
-20.666
-17.666
-13.666
-14.666
-13.666
-19.666
-18.666
-19.666
-25.666
-27.666
-26.666
-23.666
-23.666
-25.666
-32.666
-36.666
-34.666
-45.666
-59.666
-72.666
-83.666
-87.666
-85.666
-89.666
-90.666
-86.666
-88.666
-91.666
-100.67
-110.67
-116.67
-117.67
-114.67
-112.67
-120.67
-127.67
-129.67
-113.67
-104.67
-112.67
-106.67
-100.67
-92.666
-83.666
-77.666
-79.666
-70.666
-53.666
-39.666
-31.666
-17.666
-5.6658
-6.6658
-15.666
-15.666
-9.6658
-11.666
1.3342
12.334
7.3342
1.3342
0.3342
-1.6658
3.3342
12.334
21.334
22.334
7.3342
1.3342
3.3342
6.3342
17.334
12.334
6.3342
5.3342
3.3342
0.3342
0.3342
0.3342
11.334
19.334
28.334
29.334
27.334
11.334
1.3342
6.3342
11.334
-1.6658
-9.6658
-3.6658
4.3342
9.3342
-3.6658
-9.6658
-5.6658
-1.6658
-5.6658
-2.6658
2.3342
6.3342
1.3342
2.3342
-0.6658
-4.6658
3.3342
-3.6658
-8.6658
-8.6658
-7.6658
-7.6658
0.3342
12.334
6.3342
-3.6658
-5.6658
-4.6658
12.334
18.334
19.334
11.334
-7.6658
-13.666
-0.6658
15.334
8.3342
-20.666
-31.666
-20.666
-6.6658
0.3342
-9.6658
-14.666
-1.6658
11.334
12.334
0.3342
3.3342
13.334
27.334
28.334
32.334
35.334
27.334
18.334
10.334
13.334
23.334
33.334
34.334
30.334
24.334
14.334
5.3342
-0.6658
-9.6658
-17.666
-20.666
-17.666
-14.666
-16.666
-8.6658
-7.6658
-13.666
-13.666
-4.6658
10.334
44.334
90.334
146.33
184.33
197.33
186.33
128.33
-7.6658
-166.67
-261.67
-284.67
-262.67
-206.67
-147.67
-105.67
-78.666
-55.666
-34.666
-24.666
-25.666
-19.666
-15.666
-24.666
-22.666
-22.666
-23.666
-31.666
-35.666
-31.666
-25.666
-19.666
-8.6658
-12.666
-24.666
-30.666
-36.666
-34.666
-24.666
-21.666
-24.666
-25.666
-15.666
-15.666
-39.666
-51.666
-47.666
-41.666
-40.666
-48.666
-56.666
-59.666
-58.666
-50.666
-42.666
-41.666
-55.666
-80.666
-87.666
-78.666
-69.666
-71.666
-86.666
-105.67
-115.67
-120.67
-116.67
-114.67
-117.67
-115.67
-113.67
-114.67
-115.67
-122.67
-120.67
-115.67
-110.67
-98.666
-92.666
-79.666
-61.666
-40.666
-30.666
-38.666
-42.666
-34.666
-28.666
-26.666
-14.666
-8.6658
-9.6658
-1.6658
7.3342
11.334
9.3342
-1.6658
-12.666
-6.6658
2.3342
8.3342
18.334
23.334
23.334
17.334
16.334
15.334
9.3342
-6.6658
-10.666
-11.666
0.3342
4.3342
13.334
20.334
22.334
21.334
13.334
-13.666
-16.666
-9.6658
-2.6658
5.3342
6.3342
4.3342
-7.6658
-9.6658
-2.6658
5.3342
5.3342
8.3342
13.334
8.3342
8.3342
10.334
1.3342
-2.6658
13.334
20.334
13.334
1.3342
-6.6658
-9.6658
-3.6658
3.3342
-0.6658
4.3342
16.334
22.334
12.334
2.3342
-0.6658
-0.6658
1.3342
3.3342
0.3342
6.3342
4.3342
0.3342
1.3342
2.3342
7.3342
6.3342
8.3342
6.3342
1.3342
4.3342
4.3342
7.3342
22.334
34.334
45.334
50.334
33.334
10.334
9.3342
22.334
27.334
25.334
19.334
25.334
37.334
44.334
48.334
43.334
49.334
55.334
45.334
37.334
36.334
42.334
42.334
32.334
24.334
18.334
14.334
13.334
20.334
33.334
33.334
13.334
-0.6658
9.3342
28.334
41.334
68.334
111.33
161.33
196.33
218.33
222.33
180.33
55.334
-101.67
-204.67
-247.67
-240.67
-192.67
-132.67
-80.666
-33.666
-6.6658
-11.666
-25.666
-14.666
-5.6658
-3.6658
-2.6658
-3.6658
4.3342
13.334
11.334
8.3342
-0.6658
-4.6658
3.3342
19.334
28.334
27.334
8.3342
-6.6658
3.3342
13.334
0.3342
-14.666
-11.666
-6.6658
-2.6658
-2.6658
1.3342
-4.6658
-1.6658
2.3342
6.3342
-2.6658
-9.6658
-13.666
-19.666
-22.666
-29.666
-35.666
-32.666
-37.666
-32.666
-37.666
-42.666
-49.666
-53.666
-60.666
-56.666
-50.666
-68.666
-79.666
-75.666
-73.666
-88.666
-97.666
-92.666
-88.666
-84.666
-72.666
-61.666
-57.666
-49.666
-42.666
-28.666
-19.666
-7.6658
-2.6658
2.3342
7.3342
18.334
23.334
23.334
33.334
38.334
42.334
37.334
36.334
41.334
46.334
46.334
42.334
34.334
32.334
42.334
50.334
59.334
65.334
54.334
37.334
34.334
38.334
47.334
50.334
45.334
39.334
45.334
44.334
40.334
36.334
35.334
39.334
35.334
33.334
37.334
36.334
41.334
39.334
46.334
51.334
54.334
51.334
49.334
47.334
48.334
55.334
57.334
42.334
27.334
19.334
24.334
31.334
40.334
43.334
42.334
45.334
47.334
41.334
46.334
41.334
40.334
39.334
44.334
45.334
48.334
45.334
45.334
46.334
46.334
50.334
48.334
46.334
46.334
41.334
45.334
37.334
35.334
36.334
45.334
44.334
49.334
49.334
48.334
47.334
54.334
60.334
64.334
75.334
76.334
77.334
78.334
79.334
87.334
85.334
86.334
84.334
72.334
63.334
58.334
55.334
58.334
48.334
36.334
31.334
30.334
31.334
37.334
40.334
44.334
48.334
54.334
64.334
78.334
90.334
104.33
147.33
204.33
232.33
264.33
274.33
207.33
67.334
-76.666
-169.67
-196.67
-185.67
-156.67
-116.67
-71.666
-33.666
-9.6658
2.3342
21.334
35.334
41.334
31.334
24.334
17.334
23.334
28.334
29.334
34.334
36.334
41.334
41.334
39.334
38.334
34.334
28.334
26.334
32.334
37.334
37.334
40.334
43.334
49.334
50.334
42.334
33.334
8.3342
-8.6658
-15.666
-13.666
-16.666
-24.666
-29.666
-32.666
-41.666
-53.666
-63.666
-68.666
-80.666
-81.666
-81.666
-86.666
-87.666
-78.666
-81.666
-80.666
-78.666
-87.666
-105.67
-112.67
-108.67
-105.67
-96.666
-101.67
-110.67
-106.67
-96.666
-90.666
-76.666
-58.666
-56.666
-59.666
-52.666
-46.666
-48.666
-37.666
-20.666
-14.666
-6.6658
-1.6658
2.3342
6.3342
5.3342
7.3342
11.334
13.334
17.334
20.334
19.334
19.334
23.334
19.334
17.334
19.334
22.334
29.334
38.334
39.334
24.334
13.334
16.334
22.334
26.334
14.334
6.3342
1.3342
4.3342
8.3342
12.334
11.334
10.334
18.334
23.334
29.334
28.334
31.334
31.334
27.334
19.334
18.334
22.334
25.334
21.334
20.334
24.334
14.334
8.3342
5.3342
4.3342
14.334
26.334
24.334
17.334
19.334
20.334
21.334
23.334
15.334
18.334
17.334
15.334
12.334
9.3342
16.334
20.334
22.334
17.334
12.334
14.334
22.334
29.334
30.334
25.334
14.334
13.334
17.334
19.334
26.334
34.334
34.334
23.334
16.334
11.334
15.334
27.334
41.334
50.334
50.334
47.334
54.334
69.334
72.334
57.334
41.334
38.334
41.334
34.334
30.334
30.334
36.334
40.334
35.334
28.334
26.334
30.334
32.334
34.334
41.334
40.334
43.334
60.334
79.334
109.33
148.33
202.33
240.33
269.33
286.33
245.33
132.33
-17.666
-130.67
-182.67
-182.67
-156.67
-113.67
-58.666
-19.666
9.3342
25.334
34.334
35.334
39.334
38.334
36.334
45.334
46.334
53.334
51.334
54.334
57.334
59.334
61.334
53.334
45.334
40.334
47.334
46.334
53.334
54.334
51.334
49.334
47.334
49.334
49.334
51.334
51.334
47.334
53.334
55.334
51.334
39.334
39.334
34.334
40.334
31.334
18.334
5.3342
8.3342
6.3342
5.3342
9.3342
5.3342
-3.6658
-23.666
-35.666
-36.666
-29.666
-27.666
-27.666
-37.666
-42.666
-40.666
-41.666
-40.666
-40.666
-35.666
-35.666
-30.666
-26.666
-9.6658
0.3342
18.334
27.334
38.334
47.334
56.334
64.334
76.334
76.334
62.334
56.334
53.334
71.334
89.334
95.334
92.334
92.334
94.334
97.334
100.33
98.334
92.334
92.334
103.33
114.33
107.33
98.334
99.334
101.33
103.33
104.33
104.33
105.33
97.334
100.33
106.33
108.33
107.33
110.33
109.33
105.33
109.33
106.33
100.33
98.334
95.334
93.334
93.334
92.334
97.334
105.33
117.33
112.33
97.334
90.334
92.334
94.334
98.334
102.33
104.33
101.33
99.334
95.334
101.33
103.33
105.33
109.33
104.33
104.33
103.33
99.334
97.334
106.33
109.33
103.33
95.334
93.334
90.334
88.334
88.334
89.334
98.334
102.33
106.33
107.33
109.33
106.33
104.33
109.33
111.33
117.33
121.33
122.33
123.33
125.33
126.33
127.33
132.33
128.33
128.33
134.33
136.33
139.33
149.33
147.33
138.33
144.33
143.33
147.33
142.33
133.33
126.33
117.33
105.33
107.33
106.33
104.33
113.33
112.33
100.33
106.33
114.33
123.33
135.33
149.33
181.33
220.33
269.33
293.33
301.33
295.33
211.33
65.334
-61.666
-126.67
-140.67
-123.67
-82.666
-33.666
15.334
46.334
78.334
95.334
99.334
97.334
94.334
96.334
97.334
104.33
106.33
112.33
115.33
117.33
118.33
113.33
115.33
121.33
119.33
111.33
105.33
97.334
97.334
92.334
89.334
95.334
100.33
95.334
90.334
94.334
92.334
92.334
93.334
86.334
87.334
85.334
85.334
86.334
75.334
72.334
61.334
58.334
53.334
52.334
49.334
44.334
40.334
38.334
36.334
38.334
38.334
32.334
28.334
14.334
-5.6658
-6.6658
-3.6658
-5.6658
2.3342
7.3342
14.334
19.334
32.334
36.334
49.334
59.334
68.334
82.334
99.334
101.33
110.33
127.33
126.33
122.33
121.33
123.33
110.33
114.33
118.33
123.33
125.33
134.33
138.33
136.33
135.33
132.33
128.33
123.33
124.33
125.33
130.33
137.33
134.33
138.33
135.33
130.33
128.33
125.33
130.33
129.33
128.33
132.33
135.33
143.33
143.33
136.33
129.33
130.33
131.33
136.33
132.33
126.33
115.33
113.33
117.33
123.33
121.33
118.33
111.33
109.33
114.33
117.33
117.33
114.33
114.33
120.33
122.33
130.33
124.33
112.33
116.33
119.33
120.33
117.33
120.33
117.33
116.33
115.33
115.33
114.33
110.33
108.33
106.33
109.33
114.33
113.33
118.33
126.33
126.33
120.33
110.33
111.33
111.33
119.33
121.33
127.33
131.33
139.33
139.33
132.33
135.33
147.33
146.33
141.33
140.33
139.33
140.33
151.33
150.33
148.33
153.33
152.33
139.33
127.33
120.33
104.33
98.334
104.33
107.33
108.33
108.33
111.33
122.33
130.33
139.33
152.33
176.33
207.33
253.33
288.33
316.33
323.33
275.33
134.33
-7.6658
-96.666
-122.67
-116.67
-90.666
-49.666
-11.666
23.334
48.334
55.334
74.334
79.334
77.334
84.334
89.334
85.334
81.334
79.334
77.334
78.334
82.334
71.334
72.334
72.334
76.334
77.334
77.334
82.334
81.334
71.334
64.334
65.334
80.334
87.334
82.334
79.334
74.334
63.334
72.334
64.334
40.334
27.334
31.334
35.334
39.334
40.334
40.334
31.334
16.334
13.334
13.334
12.334
3.3342
-5.6658
-15.666
-11.666
-0.6658
-12.666
-22.666
-10.666
-0.6658
-20.666
-31.666
-54.666
-55.666
-38.666
-33.666
-38.666
-34.666
-28.666
-22.666
-8.6658
-1.6658
9.3342
19.334
44.334
62.334
64.334
59.334
65.334
76.334
66.334
61.334
76.334
76.334
91.334
125.33
144.33
119.33
89.334
66.334
64.334
71.334
87.334
87.334
71.334
66.334
72.334
68.334
82.334
117.33
120.33
82.334
61.334
68.334
97.334
123.33
100.33
53.334
41.334
63.334
76.334
67.334
68.334
85.334
83.334
83.334
79.334
78.334
72.334
72.334
74.334
74.334
98.334
141.33
207.33
257.33
290.33
322.33
299.33
192.33
28.334
-107.67
-168.67
-176.67
-166.67
-117.67
-59.666
-18.666
8.3342
25.334
40.334
54.334
56.334
56.334
81.334
92.334
68.334
51.334
35.334
22.334
32.334
46.334
59.334
65.334
57.334
42.334
39.334
40.334
44.334
48.334
47.334
44.334
44.334
47.334
56.334
59.334
46.334
34.334
29.334
29.334
16.334
21.334
22.334
25.334
20.334
14.334
17.334
20.334
19.334
18.334
14.334
13.334
3.3342
-15.666
-31.666
-29.666
-25.666
-26.666
-22.666
-29.666
-30.666
-23.666
-22.666
-10.666
-0.6658
20.334
33.334
40.334
54.334
65.334
46.334
27.334
34.334
47.334
61.334
73.334
80.334
83.334
81.334
74.334
57.334
54.334
67.334
66.334
57.334
54.334
62.334
60.334
65.334
64.334
60.334
58.334
63.334
61.334
44.334
40.334
45.334
55.334
58.334
54.334
57.334
54.334
51.334
44.334
44.334
47.334
51.334
53.334
57.334
57.334
58.334
55.334
58.334
60.334
56.334
46.334
42.334
42.334
43.334
47.334
49.334
54.334
51.334
47.334
46.334
50.334
50.334
54.334
53.334
53.334
50.334
51.334
52.334
51.334
54.334
56.334
57.334
56.334
53.334
48.334
50.334
53.334
51.334
56.334
58.334
57.334
58.334
55.334
54.334
54.334
52.334
49.334
49.334
54.334
57.334
56.334
59.334
67.334
69.334
66.334
59.334
55.334
57.334
55.334
60.334
74.334
93.334
105.33
119.33
129.33
133.33
132.33
137.33
140.33
115.33
97.334
90.334
79.334
70.334
63.334
63.334
59.334
57.334
57.334
55.334
57.334
56.334
64.334
74.334
82.334
98.334
126.33
172.33
222.33
253.33
271.33
266.33
206.33
69.334
-65.666
-151.67
-193.67
-179.67
-140.67
-95.666
-48.666
-9.6658
13.334
23.334
36.334
38.334
42.334
49.334
53.334
57.334
55.334
50.334
49.334
54.334
55.334
59.334
67.334
58.334
35.334
29.334
33.334
39.334
38.334
36.334
38.334
39.334
38.334
35.334
37.334
32.334
30.334
33.334
36.334
38.334
38.334
32.334
29.334
28.334
27.334
20.334
6.3342
-3.6658
-9.6658
-6.6658
-14.666
-12.666
-16.666
-19.666
-25.666
-28.666
-34.666
-35.666
-36.666
-38.666
-39.666
-43.666
-41.666
-43.666
-46.666
-48.666
-49.666
-51.666
-47.666
-42.666
-35.666
-30.666
-9.6658
1.3342
16.334
28.334
38.334
37.334
44.334
54.334
61.334
74.334
77.334
75.334
90.334
91.334
92.334
93.334
95.334
90.334
88.334
85.334
79.334
78.334
80.334
84.334
87.334
82.334
82.334
77.334
77.334
77.334
72.334
70.334
76.334
73.334
72.334
76.334
76.334
76.334
77.334
73.334
70.334
67.334
68.334
66.334
70.334
66.334
66.334
72.334
75.334
75.334
82.334
75.334
71.334
82.334
111.33
144.33
179.33
214.33
185.33
65.334
-67.666
-153.67
-185.67
-183.67
-178.67
-159.67
-149.67
-121.67
-81.666
-35.666
3.3342
24.334
39.334
51.334
56.334
57.334
64.334
62.334
67.334
74.334
83.334
90.334
85.334
67.334
52.334
48.334
46.334
49.334
54.334
57.334
55.334
58.334
57.334
59.334
62.334
63.334
64.334
62.334
58.334
52.334
47.334
46.334
42.334
45.334
40.334
41.334
37.334
34.334
25.334
26.334
22.334
18.334
14.334
12.334
13.334
15.334
12.334
12.334
12.334
21.334
20.334
15.334
15.334
22.334
24.334
29.334
44.334
57.334
66.334
72.334
76.334
80.334
83.334
85.334
86.334
88.334
88.334
88.334
87.334
85.334
84.334
80.334
81.334
83.334
75.334
67.334
65.334
60.334
55.334
61.334
62.334
65.334
62.334
50.334
50.334
52.334
51.334
51.334
52.334
50.334
60.334
67.334
56.334
56.334
50.334
54.334
52.334
46.334
46.334
49.334
48.334
46.334
53.334
54.334
60.334
55.334
57.334
53.334
54.334
54.334
59.334
73.334
86.334
106.33
129.33
122.33
121.33
122.33
123.33
108.33
93.334
88.334
79.334
75.334
66.334
62.334
54.334
48.334
38.334
39.334
34.334
36.334
31.334
34.334
38.334
55.334
69.334
71.334
89.334
125.33
166.33
194.33
212.33
197.33
125.33
-13.666
-157.67
-227.67
-244.67
-205.67
-143.67
-69.666
-41.666
-22.666
-4.6658
8.3342
12.334
14.334
17.334
24.334
30.334
36.334
33.334
27.334
27.334
28.334
30.334
27.334
24.334
22.334
22.334
34.334
37.334
12.334
2.3342
6.3342
8.3342
6.3342
7.3342
6.3342
8.3342
6.3342
3.3342
3.3342
10.334
1.3342
-1.6658
-5.6658
-15.666
-17.666
-17.666
-22.666
-25.666
-29.666
-27.666
-32.666
-37.666
-41.666
-47.666
-51.666
-51.666
-57.666
-63.666
-72.666
-81.666
-83.666
-80.666
-75.666
-73.666
-75.666
-78.666
-70.666
-62.666
-54.666
-52.666
-43.666
-39.666
-22.666
-13.666
-4.6658
2.3342
10.334
19.334
22.334
30.334
31.334
32.334
34.334
38.334
40.334
42.334
43.334
40.334
40.334
38.334
38.334
39.334
37.334
36.334
45.334
42.334
43.334
39.334
41.334
36.334
32.334
27.334
25.334
22.334
18.334
21.334
22.334
30.334
28.334
32.334
49.334
48.334
23.334
-1.6658
-5.6658
-3.6658
0.3342
6.3342
16.334
14.334
12.334
14.334
16.334
22.334
21.334
32.334
28.334
9.3342
-1.6658
6.3342
6.3342
7.3342
14.334
11.334
10.334
14.334
13.334
20.334
31.334
13.334
-3.6658
6.3342
19.334
25.334
16.334
-4.6658
-13.666
-9.6658
-5.6658
-5.6658
-0.6658
4.3342
8.3342
9.3342
10.334
14.334
12.334
12.334
13.334
11.334
13.334
15.334
20.334
15.334
17.334
29.334
17.334
2.3342
-2.6658
-1.6658
0.3342
2.3342
1.3342
6.3342
7.3342
10.334
13.334
16.334
18.334
21.334
13.334
8.3342
11.334
21.334
16.334
10.334
11.334
13.334
15.334
18.334
18.334
19.334
22.334
28.334
43.334
57.334
42.334
22.334
27.334
42.334
51.334
70.334
90.334
68.334
46.334
36.334
27.334
27.334
24.334
20.334
17.334
15.334
10.334
7.3342
9.3342
8.3342
9.3342
9.3342
10.334
7.3342
24.334
44.334
54.334
82.334
127.33
158.33
177.33
172.33
172.33
129.33
12.334
-128.67
-220.67
-253.67
-231.67
-174.67
-117.67
-73.666
-46.666
-32.666
-14.666
-1.6658
11.334
5.3342
1.3342
4.3342
24.334
26.334
6.3342
-7.6658
-17.666
-12.666
-4.6658
-1.6658
3.3342
0.3342
3.3342
2.3342
5.3342
7.3342
5.3342
3.3342
0.3342
1.3342
7.3342
-5.6658
-9.6658
-17.666
-18.666
-15.666
-15.666
-12.666
-19.666
-24.666
-27.666
-25.666
-34.666
-32.666
-41.666
-40.666
-42.666
-44.666
-48.666
-51.666
-54.666
-62.666
-64.666
-72.666
-73.666
-78.666
-77.666
-76.666
-69.666
-66.666
-68.666
-68.666
-83.666
-95.666
-88.666
-76.666
-63.666
-52.666
-37.666
-22.666
-8.6658
5.3342
22.334
37.334
38.334
39.334
38.334
38.334
36.334
35.334
34.334
37.334
45.334
48.334
48.334
22.334
6.3342
8.3342
1.3342
-2.6658
-2.6658
-2.6658
7.3342
9.3342
18.334
22.334
25.334
20.334
12.334
6.3342
12.334
10.334
-7.6658
-10.666
-2.6658
2.3342
5.3342
3.3342
6.3342
1.3342
2.3342
-0.6658
0.3342
1.3342
7.3342
9.3342
7.3342
6.3342
11.334
7.3342
8.3342
4.3342
0.3342
-5.6658
5.3342
36.334
89.334
137.33
157.33
112.33
-23.666
-166.67
-246.67
-279.67
-277.67
-265.67
-232.67
-181.67
-115.67
-63.666
-29.666
-9.6658
6.3342
8.3342
13.334
10.334
12.334
17.334
20.334
23.334
34.334
39.334
44.334
31.334
17.334
6.3342
0.3342
9.3342
7.3342
5.3342
6.3342
10.334
14.334
12.334
20.334
20.334
21.334
25.334
27.334
30.334
32.334
16.334
-3.6658
-19.666
-23.666
-25.666
-35.666
-34.666
-30.666
-31.666
-30.666
-29.666
-29.666
-32.666
-31.666
-32.666
-30.666
-30.666
-29.666
-36.666
-33.666
-28.666
-20.666
-14.666
-3.6658
9.3342
20.334
28.334
43.334
48.334
33.334
33.334
35.334
42.334
44.334
46.334
51.334
47.334
46.334
45.334
41.334
36.334
31.334
37.334
42.334
48.334
46.334
33.334
33.334
23.334
8.3342
9.3342
10.334
19.334
26.334
23.334
8.3342
6.3342
11.334
19.334
26.334
28.334
21.334
22.334
23.334
21.334
14.334
8.3342
4.3342
4.3342
12.334
19.334
33.334
34.334
43.334
52.334
61.334
69.334
76.334
82.334
85.334
85.334
80.334
73.334
63.334
56.334
49.334
34.334
21.334
12.334
11.334
8.3342
5.3342
5.3342
9.3342
13.334
18.334
27.334
40.334
55.334
92.334
136.33
172.33
194.33
204.33
161.33
44.334
-110.67
-217.67
-256.67
-254.67
-218.67
-159.67
-101.67
-56.666
-30.666
-5.6658
12.334
17.334
12.334
2.3342
-8.6658
-2.6658
1.3342
-9.6658
-11.666
-9.6658
-3.6658
1.3342
3.3342
6.3342
1.3342
6.3342
5.3342
4.3342
3.3342
8.3342
16.334
26.334
38.334
37.334
14.334
-1.6658
-14.666
-24.666
-23.666
-30.666
-35.666
-32.666
-27.666
-25.666
-29.666
-29.666
-30.666
-32.666
-36.666
-44.666
-48.666
-55.666
-53.666
-58.666
-59.666
-57.666
-57.666
-57.666
-51.666
-57.666
-65.666
-64.666
-64.666
-66.666
-64.666
-58.666
-42.666
-31.666
-26.666
-23.666
-24.666
-16.666
-8.6658
9.3342
21.334
30.334
23.334
21.334
27.334
33.334
38.334
37.334
36.334
43.334
42.334
47.334
46.334
43.334
43.334
41.334
39.334
40.334
44.334
46.334
43.334
41.334
40.334
38.334
38.334
40.334
50.334
46.334
42.334
32.334
30.334
28.334
27.334
22.334
24.334
21.334
23.334
31.334
33.334
33.334
35.334
34.334
26.334
27.334
25.334
28.334
27.334
30.334
28.334
30.334
29.334
30.334
29.334
38.334
44.334
39.334
42.334
47.334
33.334
18.334
7.3342
3.3342
9.3342
14.334
16.334
24.334
17.334
9.3342
11.334
12.334
13.334
16.334
14.334
14.334
17.334
21.334
24.334
22.334
18.334
20.334
15.334
17.334
16.334
33.334
33.334
27.334
15.334
12.334
22.334
18.334
7.3342
-6.6658
-2.6658
8.3342
14.334
16.334
17.334
18.334
18.334
26.334
35.334
25.334
14.334
9.3342
7.3342
4.3342
1.3342
6.3342
14.334
25.334
22.334
19.334
21.334
17.334
27.334
27.334
26.334
29.334
35.334
37.334
32.334
35.334
34.334
43.334
50.334
54.334
58.334
60.334
54.334
48.334
41.334
37.334
31.334
27.334
18.334
13.334
7.3342
-0.6658
1.3342
5.3342
9.3342
7.3342
11.334
23.334
38.334
52.334
80.334
134.33
194.33
237.33
270.33
262.33
172.33
29.334
-107.67
-189.67
-217.67
-209.67
-187.67
-156.67
-116.67
-74.666
-47.666
-34.666
-16.666
-15.666
-10.666
-3.6658
-1.6658
-2.6658
-2.6658
-5.6658
-5.6658
-0.6658
-0.6658
0.3342
0.3342
-1.6658
-0.6658
4.3342
4.3342
9.3342
8.3342
5.3342
1.3342
-2.6658
-9.6658
-20.666
-22.666
-15.666
-11.666
-12.666
-16.666
-17.666
-25.666
-33.666
-34.666
-28.666
-30.666
-34.666
-32.666
-34.666
-34.666
-34.666
-39.666
-44.666
-46.666
-51.666
-57.666
-56.666
-54.666
-47.666
-39.666
-47.666
-53.666
-47.666
-56.666
-58.666
-59.666
-58.666
-68.666
-77.666
-74.666
-58.666
-41.666
-43.666
-47.666
-53.666
-51.666
-43.666
-31.666
-23.666
-15.666
-12.666
-13.666
-0.6658
19.334
27.334
9.3342
-4.6658
-9.6658
-4.6658
5.3342
16.334
14.334
6.3342
0.3342
5.3342
8.3342
9.3342
16.334
16.334
13.334
17.334
16.334
25.334
34.334
26.334
0.3342
-7.6658
-7.6658
3.3342
3.3342
1.3342
1.3342
4.3342
4.3342
2.3342
3.3342
2.3342
10.334
10.334
6.3342
9.3342
11.334
7.3342
3.3342
-0.6658
-0.6658
-3.6658
-3.6658
2.3342
3.3342
4.3342
1.3342
5.3342
3.3342
7.3342
7.3342
5.3342
8.3342
15.334
6.3342
10.334
17.334
10.334
-9.6658
-11.666
-5.6658
-7.6658
-2.6658
1.3342
-1.6658
-3.6658
-1.6658
2.3342
2.3342
4.3342
6.3342
2.3342
2.3342
4.3342
-1.6658
-0.6658
2.3342
-0.6658
0.3342
6.3342
6.3342
5.3342
9.3342
8.3342
10.334
10.334
15.334
24.334
29.334
32.334
34.334
49.334
50.334
42.334
36.334
29.334
32.334
34.334
26.334
24.334
30.334
26.334
19.334
19.334
12.334
12.334
5.3342
-2.6658
-9.6658
-7.6658
-0.6658
0.3342
5.3342
2.3342
10.334
28.334
49.334
72.334
118.33
163.33
189.33
218.33
229.33
160.33
6.3342
-140.67
-222.67
-245.67
-239.67
-210.67
-165.67
-117.67
-78.666
-50.666
-32.666
-23.666
-7.6658
-3.6658
-2.6658
1.3342
1.3342
2.3342
-0.6658
-2.6658
-2.6658
-0.6658
1.3342
-1.6658
-0.6658
4.3342
5.3342
6.3342
4.3342
-1.6658
2.3342
-3.6658
-2.6658
-6.6658
-4.6658
-4.6658
-8.6658
-4.6658
-11.666
-11.666
-12.666
-15.666
-20.666
-27.666
-36.666
-45.666
-45.666
-44.666
-46.666
-47.666
-51.666
-51.666
-59.666
-65.666
-72.666
-81.666
-81.666
-84.666
-89.666
-89.666
-92.666
-99.666
-98.666
-101.67
-97.666
-97.666
-102.67
-96.666
-87.666
-78.666
-70.666
-66.666
-47.666
-34.666
-15.666
-3.6658
-4.6658
-0.6658
0.3342
4.3342
15.334
21.334
32.334
35.334
48.334
54.334
33.334
17.334
19.334
24.334
25.334
27.334
29.334
35.334
33.334
34.334
34.334
25.334
27.334
26.334
20.334
11.334
17.334
32.334
30.334
19.334
20.334
26.334
28.334
23.334
30.334
34.334
16.334
5.3342
5.3342
11.334
19.334
26.334
25.334
27.334
22.334
21.334
40.334
86.334
150.33
193.33
222.33
202.33
78.334
-98.666
-239.67
-287.67
-273.67
-239.67
-171.67
-97.666
-42.666
-6.6658
20.334
30.334
38.334
43.334
45.334
42.334
39.334
47.334
50.334
48.334
48.334
48.334
49.334
53.334
55.334
56.334
57.334
52.334
44.334
46.334
44.334
38.334
29.334
23.334
25.334
32.334
28.334
24.334
16.334
9.3342
23.334
32.334
20.334
0.3342
-17.666
-18.666
-15.666
-12.666
-19.666
-22.666
-24.666
-31.666
-27.666
-31.666
-37.666
-35.666
-41.666
-40.666
-46.666
-39.666
-41.666
-41.666
-41.666
-40.666
-35.666
-26.666
-16.666
-5.6658
16.334
38.334
46.334
62.334
76.334
68.334
61.334
60.334
62.334
66.334
66.334
69.334
70.334
73.334
73.334
73.334
68.334
68.334
65.334
61.334
55.334
53.334
55.334
54.334
51.334
46.334
44.334
39.334
38.334
38.334
33.334
25.334
25.334
36.334
41.334
37.334
29.334
22.334
25.334
23.334
22.334
19.334
17.334
18.334
14.334
14.334
18.334
19.334
17.334
18.334
12.334
8.3342
17.334
9.3342
18.334
33.334
42.334
50.334
57.334
62.334
72.334
81.334
100.33
132.33
184.33
233.33
266.33
276.33
241.33
116.33
-64.666
-189.67
-228.67
-211.67
-154.67
-81.666
-19.666
9.3342
29.334
49.334
62.334
62.334
66.334
59.334
57.334
50.334
49.334
50.334
44.334
48.334
50.334
48.334
50.334
52.334
52.334
47.334
44.334
38.334
38.334
32.334
27.334
20.334
28.334
27.334
27.334
27.334
19.334
14.334
9.3342
6.3342
5.3342
7.3342
10.334
19.334
20.334
27.334
19.334
14.334
13.334
13.334
10.334
10.334
17.334
12.334
16.334
17.334
15.334
6.3342
3.3342
-1.6658
-2.6658
-2.6658
-13.666
-5.6658
-2.6658
1.3342
3.3342
13.334
21.334
24.334
31.334
36.334
39.334
39.334
45.334
51.334
49.334
55.334
56.334
65.334
67.334
59.334
56.334
50.334
48.334
41.334
41.334
42.334
42.334
36.334
42.334
44.334
45.334
49.334
53.334
59.334
64.334
74.334
76.334
82.334
81.334
84.334
81.334
84.334
89.334
92.334
107.33
120.33
140.33
144.33
160.33
179.33
205.33
219.33
232.33
209.33
86.334
-89.666
-223.67
-266.67
-234.67
-152.67
-66.666
-12.666
19.334
42.334
52.334
57.334
56.334
55.334
51.334
54.334
54.334
54.334
48.334
46.334
46.334
47.334
46.334
44.334
41.334
36.334
28.334
29.334
27.334
25.334
27.334
30.334
33.334
41.334
52.334
57.334
61.334
55.334
53.334
48.334
45.334
46.334
43.334
38.334
42.334
40.334
40.334
39.334
37.334
33.334
27.334
21.334
15.334
10.334
6.3342
5.3342
1.3342
-4.6658
-4.6658
-5.6658
-8.6658
-8.6658
-1.6658
8.3342
15.334
18.334
25.334
29.334
43.334
50.334
57.334
58.334
53.334
54.334
52.334
50.334
51.334
50.334
46.334
45.334
45.334
44.334
38.334
34.334
29.334
25.334
28.334
34.334
42.334
49.334
59.334
69.334
79.334
89.334
109.33
128.33
161.33
208.33
251.33
274.33
290.33
278.33
168.33
-22.666
-175.67
-231.67
-220.67
-175.67
-114.67
-49.666
-6.6658
27.334
49.334
65.334
64.334
59.334
58.334
56.334
60.334
54.334
48.334
44.334
42.334
42.334
39.334
39.334
42.334
47.334
40.334
37.334
26.334
18.334
17.334
14.334
18.334
18.334
21.334
25.334
26.334
22.334
16.334
6.3342
6.3342
6.3342
11.334
20.334
26.334
27.334
27.334
29.334
28.334
26.334
29.334
34.334
23.334
24.334
19.334
17.334
23.334
29.334
33.334
33.334
33.334
37.334
42.334
51.334
55.334
66.334
68.334
74.334
77.334
77.334
73.334
73.334
72.334
68.334
63.334
53.334
42.334
38.334
40.334
38.334
37.334
37.334
42.334
38.334
35.334
37.334
29.334
25.334
26.334
25.334
22.334
22.334
25.334
40.334
54.334
60.334
66.334
59.334
66.334
80.334
95.334
105.33
122.33
162.33
217.33
259.33
275.33
229.33
87.334
-84.666
-207.67
-252.67
-239.67
-196.67
-136.67
-73.666
-29.666
2.3342
24.334
34.334
33.334
34.334
30.334
29.334
31.334
32.334
27.334
22.334
18.334
10.334
5.3342
16.334
22.334
16.334
4.3342
-3.6658
-5.6658
-12.666
-11.666
-4.6658
5.3342
13.334
11.334
15.334
16.334
11.334
13.334
11.334
14.334
22.334
23.334
22.334
20.334
13.334
13.334
19.334
15.334
5.3342
7.3342
15.334
21.334
15.334
10.334
12.334
18.334
19.334
22.334
22.334
24.334
31.334
26.334
22.334
20.334
32.334
36.334
38.334
43.334
45.334
40.334
41.334
35.334
27.334
23.334
19.334
24.334
18.334
16.334
13.334
10.334
3.3342
1.3342
-11.666
-20.666
-16.666
-8.6658
3.3342
13.334
18.334
19.334
25.334
25.334
24.334
25.334
23.334
20.334
15.334
7.3342
17.334
27.334
35.334
45.334
62.334
69.334
82.334
112.33
161.33
188.33
200.33
173.33
56.334
-102.67
-233.67
-287.67
-275.67
-231.67
-177.67
-122.67
-80.666
-42.666
-18.666
-3.6658
6.3342
6.3342
8.3342
5.3342
-0.6658
-3.6658
-6.6658
-7.6658
-9.6658
-12.666
-20.666
-16.666
-18.666
-21.666
-19.666
-13.666
-14.666
-19.666
-17.666
-2.6658
2.3342
1.3342
1.3342
2.3342
-0.6658
-4.6658
-7.6658
-13.666
-11.666
-20.666
-18.666
-17.666
-21.666
-23.666
-19.666
-9.6658
-6.6658
-6.6658
-6.6658
-9.6658
-17.666
-23.666
-28.666
-38.666
-39.666
-32.666
-26.666
-21.666
-15.666
-12.666
-10.666
-3.6658
-2.6658
-2.6658
5.3342
8.3342
12.334
9.3342
13.334
9.3342
16.334
20.334
21.334
8.3342
0.3342
2.3342
2.3342
9.3342
15.334
19.334
20.334
22.334
27.334
35.334
38.334
30.334
25.334
22.334
26.334
31.334
32.334
30.334
30.334
21.334
24.334
31.334
47.334
69.334
80.334
98.334
119.33
148.33
176.33
194.33
180.33
72.334
-107.67
-252.67
-307.67
-295.67
-240.67
-155.67
-88.666
-38.666
-18.666
-4.6658
-0.6658
-0.6658
-3.6658
-7.6658
-13.666
-9.6658
-5.6658
-10.666
-13.666
-6.6658
-3.6658
-2.6658
-2.6658
-3.6658
-1.6658
-1.6658
1.3342
-3.6658
-2.6658
-0.6658
14.334
26.334
23.334
13.334
8.3342
6.3342
1.3342
-5.6658
-11.666
-12.666
-15.666
-17.666
-18.666
-13.666
-5.6658
-7.6658
-9.6658
-10.666
-10.666
-15.666
-20.666
-23.666
-32.666
-29.666
-33.666
-34.666
-30.666
-19.666
-27.666
-32.666
-32.666
-27.666
-26.666
-22.666
-15.666
-5.6658
6.3342
8.3342
9.3342
5.3342
-1.6658
2.3342
-0.6658
6.3342
3.3342
5.3342
8.3342
11.334
12.334
9.3342
13.334
13.334
20.334
26.334
35.334
50.334
74.334
105.33
146.33
191.33
231.33
253.33
262.33
189.33
5.3342
-176.67
-253.67
-260.67
-216.67
-140.67
-68.666
-23.666
-8.6658
2.3342
6.3342
9.3342
5.3342
-3.6658
2.3342
-1.6658
-5.6658
-1.6658
-1.6658
-0.6658
-2.6658
-3.6658
-7.6658
-11.666
-16.666
-20.666
-18.666
-25.666
-30.666
-31.666
-31.666
-30.666
-32.666
-24.666
-24.666
-29.666
-38.666
-35.666
-33.666
-34.666
-29.666
-37.666
-23.666
-18.666
-17.666
-23.666
-34.666
-41.666
-46.666
-50.666
-47.666
-49.666
-48.666
-44.666
-40.666
-32.666
-26.666
-36.666
-38.666
-30.666
-22.666
-13.666
-8.6658
-9.6658
-0.6658
9.3342
15.334
16.334
16.334
16.334
13.334
14.334
7.3342
2.3342
1.3342
5.3342
4.3342
2.3342
-7.6658
-6.6658
-7.6658
-9.6658
-14.666
-15.666
-15.666
-11.666
-4.6658
0.3342
-3.6658
-1.6658
-1.6658
-9.6658
-13.666
-9.6658
-10.666
-7.6658
-2.6658
-2.6658
-2.6658
4.3342
0.3342
-4.6658
-7.6658
-11.666
-8.6658
-9.6658
-9.6658
-9.6658
-7.6658
-3.6658
9.3342
17.334
24.334
52.334
87.334
115.33
126.33
113.33
48.334
-91.666
-239.67
-321.67
-328.67
-288.67
-219.67
-135.67
-80.666
-46.666
-34.666
-17.666
-14.666
-13.666
-5.6658
-1.6658
-3.6658
-3.6658
-6.6658
-13.666
-17.666
-24.666
-18.666
-13.666
-17.666
-18.666
-17.666
-12.666
-8.6658
-8.6658
-6.6658
-1.6658
9.3342
16.334
16.334
8.3342
-9.6658
-22.666
-13.666
-7.6658
-8.6658
-6.6658
-14.666
-22.666
-22.666
-12.666
-9.6658
-9.6658
-14.666
-12.666
-5.6658
-1.6658
-9.6658
-14.666
-6.6658
-4.6658
-2.6658
-1.6658
-3.6658
-7.6658
-4.6658
6.3342
18.334
17.334
14.334
19.334
20.334
25.334
34.334
34.334
31.334
36.334
42.334
46.334
47.334
44.334
49.334
47.334
44.334
36.334
34.334
35.334
38.334
35.334
25.334
23.334
20.334
18.334
17.334
15.334
13.334
18.334
21.334
15.334
9.3342
14.334
23.334
19.334
14.334
14.334
20.334
17.334
12.334
4.3342
2.3342
6.3342
7.3342
6.3342
6.3342
14.334
10.334
13.334
12.334
9.3342
-5.6658
-15.666
-12.666
-10.666
-13.666
-11.666
-9.6658
-6.6658
-0.6658
0.3342
6.3342
9.3342
15.334
34.334
87.334
151.33
194.33
228.33
204.33
84.334
-80.666
-207.67
-258.67
-256.67
-224.67
-170.67
-110.67
-72.666
-35.666
-16.666
-7.6658
-1.6658
-3.6658
3.3342
14.334
12.334
6.3342
8.3342
12.334
3.3342
2.3342
4.3342
8.3342
17.334
19.334
5.3342
-10.666
-16.666
-14.666
-15.666
-23.666
-34.666
-33.666
-35.666
-30.666
-29.666
-36.666
-35.666
-33.666
-37.666
-40.666
-41.666
-39.666
-42.666
-36.666
-30.666
-22.666
-23.666
-27.666
-21.666
-17.666
-17.666
-24.666
-28.666
-33.666
-28.666
-25.666
-18.666
-18.666
-8.6658
-2.6658
-7.6658
-12.666
-5.6658
7.3342
20.334
33.334
42.334
43.334
44.334
51.334
52.334
43.334
37.334
35.334
34.334
30.334
29.334
22.334
26.334
26.334
30.334
28.334
23.334
10.334
4.3342
4.3342
5.3342
18.334
27.334
23.334
23.334
49.334
97.334
135.33
157.33
169.33
179.33
176.33
165.33
105.33
-31.666
-175.67
-226.67
-189.67
-125.67
-80.666
-59.666
-40.666
-23.666
-7.6658
-7.6658
-0.6658
0.3342
4.3342
4.3342
8.3342
14.334
12.334
1.3342
-2.6658
-9.6658
-7.6658
-6.6658
-4.6658
-9.6658
-7.6658
-1.6658
-4.6658
-8.6658
-9.6658
-10.666
-14.666
-21.666
-25.666
-29.666
-33.666
-32.666
-34.666
-30.666
-30.666
-38.666
-46.666
-54.666
-60.666
-64.666
-57.666
-56.666
-53.666
-60.666
-65.666
-66.666
-61.666
-63.666
-79.666
-82.666
-76.666
-73.666
-78.666
-65.666
-59.666
-52.666
-38.666
-30.666
-22.666
-11.666
-0.6658
4.3342
5.3342
12.334
23.334
28.334
36.334
39.334
48.334
60.334
78.334
107.33
146.33
192.33
236.33
265.33
205.33
27.334
-134.67
-188.67
-179.67
-135.67
-87.666
-47.666
-29.666
-19.666
-9.6658
0.3342
11.334
17.334
20.334
28.334
23.334
10.334
7.3342
6.3342
3.3342
10.334
9.3342
18.334
18.334
20.334
24.334
25.334
2.3342
-5.6658
-15.666
-23.666
-17.666
-11.666
-3.6658
1.3342
0.3342
-1.6658
-5.6658
-7.6658
-8.6658
-3.6658
0.3342
-8.6658
-19.666
-20.666
-17.666
-17.666
-9.6658
-4.6658
-13.666
-33.666
-36.666
-35.666
-26.666
-25.666
-33.666
-33.666
-21.666
-9.6658
-5.6658
4.3342
7.3342
13.334
16.334
13.334
11.334
15.334
25.334
30.334
26.334
18.334
21.334
14.334
7.3342
12.334
11.334
10.334
6.3342
4.3342
1.3342
-1.6658
8.3342
11.334
18.334
30.334
55.334
70.334
90.334
128.33
167.33
196.33
212.33
206.33
112.33
-54.666
-199.67
-270.67
-271.67
-233.67
-162.67
-97.666
-54.666
-15.666
13.334
21.334
15.334
14.334
2.3342
-2.6658
6.3342
13.334
18.334
11.334
7.3342
7.3342
10.334
6.3342
0.3342
5.3342
4.3342
-6.6658
-14.666
-9.6658
-4.6658
-9.6658
-13.666
-13.666
-14.666
-21.666
-21.666
-30.666
-29.666
-29.666
-32.666
-31.666
-37.666
-33.666
-28.666
-13.666
-22.666
-24.666
-30.666
-33.666
-31.666
-25.666
-26.666
-19.666
-11.666
-1.6658
2.3342
2.3342
14.334
32.334
36.334
32.334
36.334
44.334
48.334
51.334
61.334
72.334
72.334
79.334
84.334
76.334
61.334
38.334
