-31.315
-34.315
-35.315
-36.315
-37.315
-43.315
-42.315
-44.315
-42.315
-38.315
-30.315
-22.315
-14.315
-3.3149
-1.3149
2.6851
3.6851
1.6851
0.68512
-0.31488
-0.31488
-4.3149
-7.3149
-9.3149
-11.315
-11.315
-9.3149
-8.3149
-8.3149
-5.3149
-6.3149
-5.3149
-7.3149
-7.3149
-6.3149
-7.3149
-5.3149
-1.3149
-2.3149
2.6851
3.6851
9.6851
9.6851
11.685
8.6851
4.6851
-1.3149
-3.3149
-6.3149
-5.3149
-5.3149
-1.3149
1.6851
5.6851
10.685
10.685
10.685
10.685
9.6851
4.6851
6.6851
6.6851
9.6851
15.685
19.685
25.685
28.685
31.685
30.685
28.685
29.685
31.685
32.685
36.685
38.685
41.685
41.685
42.685
43.685
45.685
45.685
41.685
37.685
36.685
37.685
37.685
41.685
42.685
42.685
37.685
40.685
37.685
39.685
40.685
38.685
36.685
32.685
32.685
31.685
31.685
26.685
18.685
11.685
4.6851
2.6851
5.6851
4.6851
7.6851
7.6851
6.6851
5.6851
7.6851
11.685
9.6851
6.6851
-0.31488
-9.3149
-13.315
-13.315
-12.315
-9.3149
-5.3149
-4.3149
-2.3149
-2.3149
-8.3149
-14.315
-19.315
-21.315
-18.315
-14.315
-10.315
-5.3149
0.68512
4.6851
2.6851
-2.3149
-7.3149
-15.315
-20.315
-25.315
-26.315
-25.315
-24.315
-17.315
-12.315
-8.3149
-6.3149
-7.3149
-12.315
-13.315
-15.315
-15.315
-13.315
-12.315
-10.315
-9.3149
-9.3149
-8.3149
-3.3149
-2.3149
0.68512
0.68512
-3.3149
-8.3149
-11.315
-12.315
-10.315
-8.3149
-5.3149
-2.3149
-0.31488
-4.3149
-1.3149
-2.3149
-3.3149
-4.3149
-6.3149
-8.3149
-9.3149
-13.315
-13.315
-13.315
-10.315
-4.3149
-4.3149
-3.3149
-6.3149
-8.3149
-11.315
-15.315
-20.315
-19.315
-15.315
-13.315
-6.3149
-3.3149
-4.3149
-4.3149
-5.3149
-5.3149
-7.3149
-10.315
-12.315
-13.315
-11.315
-8.3149
-7.3149
-3.3149
-6.3149
-11.315
-12.315
-14.315
-12.315
-11.315
-9.3149
-2.3149
0.68512
1.6851
0.68512
0.68512
-1.3149
-0.31488
-4.3149
-2.3149
-3.3149
-1.3149
1.6851
3.6851
6.6851
8.6851
16.685
31.685
55.685
81.685
102.69
122.69
135.69
139.69
126.69
90.685
45.685
-2.3149
-41.315
-68.315
-81.315
-84.315
-79.315
-74.315
-63.315
-55.315
-48.315
-49.315
-51.315
-54.315
-58.315
-58.315
-54.315
-49.315
-42.315
-44.315
-46.315
-47.315
-47.315
-48.315
-45.315
-45.315
-41.315
-41.315
-39.315
-34.315
-26.315
-17.315
-11.315
-8.3149
-6.3149
-5.3149
-3.3149
-0.31488
0.68512
-1.3149
-2.3149
-3.3149
-7.3149
-12.315
-20.315
-22.315
-20.315
-14.315
-9.3149
-3.3149
-4.3149
-5.3149
-6.3149
-5.3149
-5.3149
-4.3149
-5.3149
-7.3149
-6.3149
-7.3149
-8.3149
-7.3149
-4.3149
0.68512
3.6851
5.6851
3.6851
2.6851
-1.3149
2.6851
3.6851
6.6851
8.6851
9.6851
11.685
14.685
17.685
20.685
19.685
19.685
13.685
7.6851
5.6851
5.6851
10.685
17.685
24.685
28.685
33.685
35.685
34.685
31.685
34.685
34.685
36.685
36.685
36.685
35.685
37.685
40.685
41.685
43.685
45.685
44.685
42.685
42.685
38.685
38.685
42.685
43.685
44.685
38.685
33.685
24.685
18.685
14.685
13.685
13.685
15.685
14.685
8.6851
1.6851
-2.3149
-5.3149
-3.3149
-0.31488
0.68512
3.6851
1.6851
6.6851
8.6851
6.6851
2.6851
-3.3149
-8.3149
-15.315
-22.315
-25.315
-28.315
-27.315
-25.315
-19.315
-13.315
-9.3149
-7.3149
-4.3149
-5.3149
-7.3149
-12.315
-15.315
-18.315
-17.315
-19.315
-18.315
-19.315
-18.315
-15.315
-12.315
-10.315
-3.3149
-4.3149
-7.3149
-16.315
-25.315
-32.315
-33.315
-29.315
-22.315
-15.315
-9.3149
-5.3149
-6.3149
-8.3149
-11.315
-15.315
-12.315
-12.315
-10.315
-7.3149
-6.3149
-6.3149
-7.3149
-7.3149
-6.3149
-6.3149
-4.3149
-1.3149
-1.3149
-3.3149
-4.3149
-12.315
-15.315
-17.315
-14.315
-9.3149
-8.3149
-7.3149
-7.3149
-10.315
-14.315
-20.315
-23.315
-22.315
-21.315
-17.315
-13.315
-8.3149
-8.3149
-6.3149
-6.3149
-9.3149
-14.315
-13.315
-11.315
-9.3149
-6.3149
-2.3149
-0.31488
-0.31488
-4.3149
-7.3149
-13.315
-14.315
-16.315
-12.315
-12.315
-13.315
-16.315
-12.315
-9.3149
-6.3149
-6.3149
-6.3149
-12.315
-17.315
-21.315
-20.315
-16.315
-8.3149
-6.3149
-0.31488
1.6851
3.6851
5.6851
6.6851
10.685
21.685
38.685
59.685
81.685
104.69
124.69
133.69
127.69
100.69
57.685
7.6851
-38.315
-72.315
-90.315
-95.315
-95.315
-90.315
-80.315
-73.315
-67.315
-61.315
-53.315
-54.315
-55.315
-57.315
-55.315
-53.315
-47.315
-43.315
-37.315
-38.315
-39.315
-39.315
-41.315
-44.315
-49.315
-50.315
-48.315
-44.315
-37.315
-28.315
-18.315
-13.315
-8.3149
-6.3149
-8.3149
-10.315
-13.315
-18.315
-24.315
-25.315
-26.315
-23.315
-19.315
-14.315
-11.315
-9.3149
-11.315
-12.315
-13.315
-14.315
-13.315
-11.315
-11.315
-7.3149
-5.3149
-4.3149
-7.3149
-12.315
-13.315
-11.315
-10.315
-9.3149
-12.315
-12.315
-11.315
-8.3149
-4.3149
-2.3149
-2.3149
-2.3149
0.68512
3.6851
4.6851
2.6851
0.68512
-5.3149
-4.3149
-2.3149
-0.31488
2.6851
5.6851
8.6851
11.685
11.685
16.685
15.685
15.685
19.685
20.685
24.685
25.685
28.685
34.685
37.685
37.685
35.685
33.685
31.685
26.685
30.685
31.685
34.685
36.685
38.685
36.685
38.685
38.685
36.685
35.685
34.685
31.685
28.685
22.685
21.685
18.685
14.685
8.6851
9.6851
6.6851
5.6851
6.6851
6.6851
0.68512
-1.3149
-2.3149
0.68512
-2.3149
-3.3149
-5.3149
-7.3149
-12.315
-11.315
-9.3149
-8.3149
-7.3149
-10.315
-12.315
-13.315
-14.315
-18.315
-23.315
-21.315
-22.315
-22.315
-20.315
-21.315
-21.315
-20.315
-20.315
-15.315
-13.315
-8.3149
-7.3149
-8.3149
-11.315
-17.315
-22.315
-28.315
-33.315
-38.315
-37.315
-36.315
-31.315
-23.315
-18.315
-14.315
-15.315
-16.315
-19.315
-22.315
-27.315
-29.315
-25.315
-18.315
-13.315
-10.315
-6.3149
-3.3149
-2.3149
-3.3149
-6.3149
-8.3149
-13.315
-19.315
-19.315
-16.315
-15.315
-14.315
-12.315
-13.315
-13.315
-11.315
-10.315
-13.315
-17.315
-15.315
-16.315
-19.315
-22.315
-20.315
-20.315
-19.315
-16.315
-12.315
-7.3149
-5.3149
-5.3149
-7.3149
-13.315
-17.315
-21.315
-24.315
-23.315
-17.315
-15.315
-10.315
-7.3149
-3.3149
-6.3149
-11.315
-18.315
-23.315
-23.315
-23.315
-22.315
-19.315
-16.315
-14.315
-13.315
-13.315
-11.315
-11.315
-10.315
-7.3149
-7.3149
-7.3149
-7.3149
-7.3149
-6.3149
-5.3149
-4.3149
-2.3149
-3.3149
-0.31488
4.6851
14.685
35.685
54.685
75.685
97.685
108.69
105.69
83.685
43.685
-1.3149
-46.315
-72.315
-85.315
-82.315
-75.315
-65.315
-57.315
-48.315
-48.315
-45.315
-50.315
-53.315
-60.315
-65.315
-64.315
-55.315
-44.315
-33.315
-28.315
-34.315
-43.315
-53.315
-58.315
-61.315
-53.315
-47.315
-35.315
-24.315
-17.315
-9.3149
-6.3149
-8.3149
-11.315
-13.315
-15.315
-15.315
-18.315
-16.315
-14.315
-14.315
-13.315
-12.315
-12.315
-12.315
-12.315
-10.315
-11.315
-11.315
-17.315
-21.315
-20.315
-22.315
-18.315
-11.315
-1.3149
4.6851
5.6851
1.6851
-4.3149
-10.315
-21.315
-25.315
-26.315
-20.315
-13.315
-7.3149
-1.3149
6.6851
10.685
12.685
9.6851
7.6851
1.6851
-1.3149
-2.3149
-0.31488
-0.31488
0.68512
4.6851
8.6851
14.685
15.685
21.685
23.685
25.685
27.685
27.685
27.685
24.685
22.685
21.685
20.685
23.685
29.685
36.685
42.685
43.685
45.685
49.685
48.685
46.685
45.685
36.685
29.685
22.685
22.685
20.685
20.685
22.685
22.685
24.685
26.685
26.685
25.685
27.685
27.685
22.685
14.685
2.6851
-9.3149
-17.315
-21.315
-21.315
-20.315
-14.315
-11.315
-7.3149
-2.3149
-4.3149
-3.3149
-6.3149
-6.3149
-6.3149
-3.3149
1.6851
3.6851
1.6851
-3.3149
-12.315
-24.315
-34.315
-37.315
-37.315
-33.315
-26.315
-16.315
-14.315
-12.315
-10.315
-7.3149
-5.3149
-2.3149
-2.3149
-0.31488
-7.3149
-14.315
-22.315
-29.315
-33.315
-37.315
-36.315
-34.315
-29.315
-20.315
-19.315
-11.315
-9.3149
-11.315
-14.315
-19.315
-21.315
-23.315
-18.315
-16.315
-14.315
-9.3149
-4.3149
-4.3149
-4.3149
-3.3149
-6.3149
-11.315
-14.315
-20.315
-16.315
-15.315
-11.315
-4.3149
-1.3149
1.6851
2.6851
0.68512
-9.3149
-17.315
-24.315
-26.315
-24.315
-21.315
-13.315
-7.3149
-4.3149
-1.3149
-1.3149
-6.3149
-9.3149
-13.315
-14.315
-13.315
-10.315
-7.3149
-6.3149
-7.3149
-11.315
-10.315
-14.315
-17.315
-18.315
-15.315
-16.315
-10.315
-10.315
-9.3149
-5.3149
-3.3149
-3.3149
-4.3149
-7.3149
-10.315
-11.315
-11.315
-13.315
-9.3149
-8.3149
-7.3149
-8.3149
-7.3149
-7.3149
-5.3149
-10.315
-7.3149
-11.315
-8.3149
-3.3149
-0.31488
8.6851
17.685
31.685
46.685
63.685
79.685
89.685
97.685
94.685
82.685
50.685
6.6851
-34.315
-62.315
-74.315
-79.315
-74.315
-65.315
-58.315
-51.315
-47.315
-49.315
-54.315
-61.315
-65.315
-68.315
-61.315
-53.315
-43.315
-35.315
-29.315
-29.315
-35.315
-38.315
-42.315
-46.315
-48.315
-47.315
-41.315
-35.315
-29.315
-20.315
-15.315
-10.315
-7.3149
-5.3149
-4.3149
-4.3149
-2.3149
-3.3149
-1.3149
-3.3149
-5.3149
-2.3149
-0.31488
-1.3149
-4.3149
-7.3149
-12.315
-12.315
-9.3149
-7.3149
-2.3149
-1.3149
-2.3149
-3.3149
-4.3149
-7.3149
-4.3149
-4.3149
-1.3149
-1.3149
4.6851
6.6851
6.6851
7.6851
5.6851
2.6851
-0.31488
-1.3149
-0.31488
-0.31488
1.6851
1.6851
2.6851
5.6851
12.685
17.685
20.685
23.685
20.685
18.685
16.685
14.685
18.685
19.685
22.685
29.685
35.685
40.685
43.685
45.685
45.685
40.685
35.685
34.685
32.685
35.685
41.685
48.685
54.685
56.685
53.685
49.685
42.685
36.685
31.685
30.685
32.685
32.685
32.685
34.685
35.685
34.685
30.685
26.685
23.685
20.685
18.685
20.685
20.685
14.685
8.6851
1.6851
-0.31488
-0.31488
0.68512
0.68512
1.6851
4.6851
1.6851
-1.3149
-5.3149
-6.3149
-6.3149
-5.3149
-3.3149
-4.3149
-5.3149
-5.3149
-9.3149
-10.315
-12.315
-10.315
-6.3149
-5.3149
-6.3149
-5.3149
-5.3149
-5.3149
-4.3149
-6.3149
-9.3149
-13.315
-15.315
-16.315
-14.315
-12.315
-14.315
-16.315
-16.315
-14.315
-12.315
-10.315
-13.315
-15.315
-19.315
-18.315
-14.315
-12.315
-8.3149
-6.3149
-4.3149
-4.3149
-5.3149
-3.3149
-6.3149
-4.3149
-7.3149
-6.3149
-5.3149
-3.3149
1.6851
3.6851
5.6851
1.6851
-5.3149
-5.3149
-7.3149
-8.3149
-5.3149
0.68512
2.6851
4.6851
3.6851
-1.3149
-9.3149
-17.315
-21.315
-21.315
-15.315
-8.3149
-0.31488
7.6851
10.685
10.685
7.6851
0.68512
-5.3149
-9.3149
-10.315
-9.3149
-6.3149
-0.31488
3.6851
2.6851
2.6851
-3.3149
-5.3149
-9.3149
-5.3149
0.68512
5.6851
8.6851
2.6851
-6.3149
-11.315
-12.315
-8.3149
-4.3149
-1.3149
3.6851
4.6851
3.6851
1.6851
-3.3149
-6.3149
-5.3149
-4.3149
-5.3149
-2.3149
-1.3149
0.68512
-0.31488
3.6851
1.6851
4.6851
5.6851
12.685
18.685
24.685
33.685
43.685
61.685
83.685
103.69
123.69
136.69
139.69
132.69
105.69
64.685
18.685
-19.315
-46.315
-62.315
-69.315
-70.315
-69.315
-68.315
-63.315
-60.315
-52.315
-48.315
-45.315
-48.315
-50.315
-54.315
-47.315
-42.315
-33.315
-27.315
-29.315
-32.315
-36.315
-42.315
-43.315
-42.315
-36.315
-32.315
-24.315
-20.315
-17.315
-18.315
-24.315
-22.315
-25.315
-24.315
-21.315
-17.315
-13.315
-7.3149
-1.3149
-0.31488
0.68512
-3.3149
-6.3149
-10.315
-9.3149
-8.3149
-3.3149
-2.3149
-2.3149
-3.3149
-6.3149
-9.3149
-5.3149
-2.3149
-0.31488
-2.3149
-5.3149
-5.3149
-7.3149
-4.3149
-0.31488
3.6851
7.6851
8.6851
9.6851
5.6851
1.6851
1.6851
2.6851
4.6851
4.6851
8.6851
7.6851
9.6851
9.6851
11.685
11.685
6.6851
3.6851
5.6851
10.685
18.685
26.685
28.685
29.685
29.685
26.685
33.685
38.685
41.685
41.685
44.685
47.685
49.685
51.685
53.685
52.685
52.685
48.685
49.685
47.685
46.685
43.685
39.685
35.685
31.685
28.685
26.685
28.685
27.685
32.685
28.685
25.685
21.685
20.685
17.685
13.685
10.685
4.6851
-2.3149
-5.3149
-8.3149
-6.3149
-3.3149
3.6851
4.6851
3.6851
-0.31488
-2.3149
-7.3149
-10.315
-11.315
-10.315
-15.315
-19.315
-21.315
-25.315
-24.315
-18.315
-11.315
-4.3149
-2.3149
-10.315
-12.315
-19.315
-24.315
-27.315
-28.315
-27.315
-23.315
-15.315
-12.315
-9.3149
-7.3149
-6.3149
-5.3149
-9.3149
-19.315
-25.315
-28.315
-26.315
-20.315
-15.315
-13.315
-15.315
-17.315
-16.315
-13.315
-9.3149
-13.315
-20.315
-24.315
-25.315
-22.315
-16.315
-10.315
-6.3149
-6.3149
-7.3149
-8.3149
-9.3149
-10.315
-13.315
-14.315
-14.315
-15.315
-15.315
-16.315
-13.315
-11.315
-11.315
-12.315
-14.315
-20.315
-26.315
-27.315
-23.315
-17.315
-11.315
-3.3149
-0.31488
-1.3149
-4.3149
-7.3149
-12.315
-20.315
-25.315
-27.315
-26.315
-26.315
-22.315
-17.315
-17.315
-13.315
-10.315
-10.315
-10.315
-15.315
-17.315
-20.315
-19.315
-20.315
-16.315
-13.315
-10.315
-7.3149
-5.3149
-5.3149
-11.315
-16.315
-22.315
-24.315
-23.315
-20.315
-17.315
-14.315
-13.315
-13.315
-12.315
-12.315
-11.315
-11.315
-12.315
-6.3149
-0.31488
2.6851
6.6851
10.685
14.685
19.685
24.685
36.685
56.685
78.685
104.69
121.69
128.69
115.69
83.685
34.685
-15.315
-55.315
-78.315
-85.315
-86.315
-80.315
-73.315
-68.315
-67.315
-62.315
-59.315
-60.315
-66.315
-71.315
-69.315
-66.315
-63.315
-56.315
-50.315
-47.315
-45.315
-47.315
-50.315
-50.315
-50.315
-47.315
-44.315
-39.315
-36.315
-30.315
-28.315
-23.315
-19.315
-13.315
-12.315
-11.315
-9.3149
-8.3149
-7.3149
-9.3149
-15.315
-22.315
-23.315
-20.315
-13.315
-11.315
-14.315
-21.315
-26.315
-32.315
-28.315
-21.315
-16.315
-15.315
-12.315
-15.315
-14.315
-15.315
-13.315
-13.315
-12.315
-4.3149
-0.31488
3.6851
6.6851
-3.3149
-14.315
-24.315
-22.315
-17.315
-10.315
-2.3149
2.6851
5.6851
1.6851
-4.3149
-8.3149
-7.3149
-3.3149
3.6851
8.6851
12.685
13.685
11.685
8.6851
4.6851
3.6851
7.6851
13.685
21.685
31.685
38.685
43.685
46.685
43.685
38.685
33.685
30.685
30.685
30.685
33.685
35.685
37.685
38.685
41.685
45.685
44.685
41.685
33.685
23.685
16.685
13.685
17.685
19.685
19.685
18.685
19.685
15.685
13.685
9.6851
3.6851
-1.3149
-7.3149
-13.315
-13.315
-12.315
-11.315
-11.315
-10.315
-9.3149
-9.3149
-7.3149
-12.315
-18.315
-25.315
-30.315
-32.315
-33.315
-32.315
-32.315
-26.315
-25.315
-25.315
-26.315
-24.315
-21.315
-20.315
-20.315
-20.315
-23.315
-25.315
-22.315
-18.315
-18.315
-18.315
-21.315
-28.315
-33.315
-35.315
-32.315
-31.315
-29.315
-28.315
-27.315
-28.315
-32.315
-36.315
-38.315
-39.315
-41.315
-38.315
-35.315
-32.315
-28.315
-26.315
-23.315
-24.315
-26.315
-25.315
-23.315
-25.315
-25.315
-31.315
-32.315
-27.315
-22.315
-12.315
-11.315
-6.3149
-10.315
-16.315
-23.315
-28.315
-33.315
-33.315
-29.315
-26.315
-24.315
-22.315
-21.315
-22.315
-33.315
-37.315
-40.315
-35.315
-31.315
-27.315
-19.315
-16.315
-17.315
-17.315
-16.315
-16.315
-17.315
-20.315
-22.315
-23.315
-20.315
-17.315
-15.315
-15.315
-18.315
-25.315
-26.315
-25.315
-25.315
-21.315
-15.315
-15.315
-14.315
-18.315
-22.315
-23.315
-25.315
-27.315
-27.315
-23.315
-25.315
-24.315
-21.315
-19.315
-19.315
-17.315
-16.315
-17.315
-18.315
-19.315
-23.315
-21.315
-18.315
-19.315
-12.315
-10.315
-4.3149
-2.3149
10.685
20.685
39.685
62.685
89.685
116.69
137.69
147.69
143.69
111.69
57.685
-0.31488
-53.315
-86.315
-104.31
-105.31
-98.315
-88.315
-76.315
-69.315
-65.315
-69.315
-75.315
-80.315
-81.315
-77.315
-70.315
-58.315
-49.315
-42.315
-43.315
-47.315
-49.315
-54.315
-55.315
-57.315
-58.315
-55.315
-53.315
-51.315
-46.315
-36.315
-25.315
-16.315
-8.3149
-4.3149
-2.3149
-6.3149
-10.315
-16.315
-25.315
-32.315
-34.315
-29.315
-23.315
-18.315
-14.315
-14.315
-17.315
-19.315
-20.315
-21.315
-20.315
-17.315
-15.315
-8.3149
-5.3149
-4.3149
-8.3149
-12.315
-15.315
-17.315
-16.315
-12.315
-8.3149
-7.3149
-5.3149
-8.3149
-12.315
-16.315
-16.315
-16.315
-13.315
-8.3149
-2.3149
2.6851
2.6851
6.6851
4.6851
5.6851
8.6851
13.685
19.685
19.685
14.685
14.685
13.685
16.685
15.685
17.685
19.685
23.685
27.685
31.685
34.685
34.685
32.685
30.685
29.685
33.685
34.685
38.685
40.685
38.685
37.685
34.685
33.685
30.685
29.685
29.685
32.685
35.685
33.685
27.685
18.685
12.685
7.6851
6.6851
5.6851
5.6851
1.6851
-4.3149
-11.315
-13.315
-13.315
-8.3149
-4.3149
-0.31488
-3.3149
-11.315
-18.315
-21.315
-20.315
-14.315
-9.3149
-4.3149
-6.3149
-15.315
-22.315
-29.315
-32.315
-30.315
-25.315
-25.315
-24.315
-25.315
-25.315
-24.315
-24.315
-21.315
-21.315
-20.315
-16.315
-17.315
-19.315
-25.315
-28.315
-31.315
-31.315
-29.315
-29.315
-25.315
-25.315
-26.315
-27.315
-30.315
-33.315
-34.315
-33.315
-30.315
-31.315
-27.315
-24.315
-24.315
-20.315
-21.315
-21.315
-23.315
-25.315
-30.315
-34.315
-35.315
-36.315
-34.315
-28.315
-23.315
-18.315
-15.315
-14.315
-15.315
-16.315
-17.315
-19.315
-19.315
-19.315
-18.315
-20.315
-20.315
-21.315
-24.315
-27.315
-28.315
-26.315
-26.315
-23.315
-21.315
-22.315
-18.315
-19.315
-21.315
-21.315
-22.315
-19.315
-17.315
-15.315
-18.315
-24.315
-31.315
-35.315
-35.315
-34.315
-28.315
-25.315
-21.315
-18.315
-18.315
-13.315
-12.315
-10.315
-14.315
-17.315
-21.315
-23.315
-24.315
-21.315
-18.315
-12.315
-8.3149
-11.315
-18.315
-25.315
-33.315
-33.315
-31.315
-28.315
-23.315
-16.315
-13.315
-14.315
-18.315
-18.315
-17.315
-14.315
-10.315
-6.3149
-0.31488
8.6851
22.685
40.685
65.685
90.685
112.69
130.69
132.69
119.69
81.685
29.685
-25.315
-65.315
-89.315
-101.31
-101.31
-93.315
-91.315
-85.315
-81.315
-77.315
-72.315
-68.315
-69.315
-68.315
-70.315
-67.315
-58.315
-48.315
-44.315
-42.315
-48.315
-52.315
-61.315
-64.315
-65.315
-60.315
-56.315
-48.315
-39.315
-35.315
-32.315
-31.315
-29.315
-24.315
-25.315
-25.315
-23.315
-25.315
-20.315
-16.315
-11.315
-6.3149
-9.3149
-14.315
-24.315
-31.315
-36.315
-37.315
-33.315
-26.315
-20.315
-15.315
-14.315
-11.315
-12.315
-10.315
-8.3149
-3.3149
1.6851
2.6851
2.6851
-10.315
-25.315
-35.315
-37.315
-34.315
-27.315
-20.315
-12.315
-12.315
-10.315
-7.3149
-6.3149
-7.3149
-1.3149
5.6851
10.685
13.685
13.685
11.685
4.6851
-3.3149
-11.315
-13.315
-7.3149
-0.31488
8.6851
14.685
22.685
27.685
31.685
34.685
34.685
33.685
29.685
26.685
22.685
24.685
23.685
27.685
29.685
33.685
33.685
35.685
32.685
35.685
35.685
33.685
31.685
28.685
27.685
24.685
22.685
13.685
6.6851
-1.3149
-6.3149
-14.315
-15.315
-18.315
-13.315
-14.315
-11.315
-8.3149
-4.3149
-3.3149
-3.3149
-1.3149
-6.3149
-14.315
-23.315
-28.315
-28.315
-25.315
-20.315
-12.315
-9.3149
-8.3149
-16.315
-20.315
-23.315
-28.315
-29.315
-28.315
-26.315
-27.315
-25.315
-26.315
-24.315
-24.315
-23.315
-20.315
-17.315
-18.315
-20.315
-22.315
-27.315
-26.315
-27.315
-27.315
-26.315
-28.315
-29.315
-32.315
-32.315
-28.315
-23.315
-23.315
-22.315
-22.315
-23.315
-21.315
-15.315
-11.315
-9.3149
-12.315
-19.315
-28.315
-31.315
-30.315
-25.315
-18.315
-12.315
-10.315
-9.3149
-10.315
-13.315
-18.315
-18.315
-14.315
-18.315
-19.315
-21.315
-20.315
-16.315
-14.315
-16.315
-21.315
-23.315
-27.315
-28.315
-23.315
-22.315
-17.315
-15.315
-15.315
-13.315
-13.315
-11.315
-13.315
-15.315
-16.315
-18.315
-18.315
-18.315
-15.315
-14.315
-11.315
-6.3149
-6.3149
-7.3149
-13.315
-21.315
-26.315
-28.315
-26.315
-23.315
-17.315
-17.315
-17.315
-18.315
-22.315
-25.315
-22.315
-24.315
-25.315
-21.315
-19.315
-18.315
-20.315
-19.315
-16.315
-12.315
-11.315
-8.3149
-5.3149
-5.3149
1.6851
7.6851
15.685
19.685
25.685
35.685
49.685
69.685
92.685
116.69
129.69
124.69
98.685
50.685
-7.3149
-56.315
-89.315
-105.31
-104.31
-94.315
-82.315
-70.315
-62.315
-58.315
-55.315
-59.315
-63.315
-65.315
-64.315
-61.315
-52.315
-43.315
-37.315
-40.315
-42.315
-47.315
-48.315
-50.315
-46.315
-48.315
-47.315
-52.315
-54.315
-49.315
-41.315
-27.315
-16.315
-9.3149
-6.3149
-12.315
-18.315
-25.315
-29.315
-29.315
-27.315
-22.315
-19.315
-17.315
-16.315
-17.315
-16.315
-15.315
-14.315
-17.315
-15.315
-13.315
-11.315
-13.315
-14.315
-17.315
-15.315
-12.315
-10.315
-10.315
-11.315
-13.315
-13.315
-9.3149
-7.3149
-3.3149
-5.3149
-6.3149
-9.3149
-13.315
-11.315
-10.315
-7.3149
-5.3149
-2.3149
-2.3149
-2.3149
-1.3149
-2.3149
1.6851
4.6851
9.6851
14.685
16.685
18.685
17.685
17.685
18.685
22.685
17.685
18.685
21.685
27.685
31.685
34.685
32.685
32.685
30.685
33.685
35.685
37.685
39.685
40.685
42.685
43.685
40.685
39.685
33.685
28.685
26.685
22.685
22.685
25.685
23.685
22.685
19.685
15.685
7.6851
1.6851
-0.31488
-0.31488
-1.3149
-3.3149
-3.3149
-6.3149
-6.3149
-4.3149
-0.31488
-2.3149
-4.3149
-8.3149
-16.315
-20.315
-23.315
-21.315
-19.315
-15.315
-12.315
-12.315
-10.315
-13.315
-16.315
-16.315
-17.315
-18.315
-19.315
-15.315
-17.315
-19.315
-21.315
-23.315
-25.315
-26.315
-25.315
-24.315
-23.315
-19.315
-15.315
-11.315
-10.315
-10.315
-10.315
-11.315
-11.315
-10.315
-8.3149
-9.3149
-10.315
-14.315
-17.315
-20.315
-21.315
-19.315
-17.315
-16.315
-13.315
-13.315
-11.315
-10.315
-11.315
-13.315
-17.315
-19.315
-19.315
-15.315
-11.315
-9.3149
-7.3149
-6.3149
-7.3149
-9.3149
-14.315
-19.315
-26.315
-30.315
-28.315
-20.315
-15.315
-10.315
-7.3149
-8.3149
-9.3149
-12.315
-13.315
-18.315
-20.315
-21.315
-18.315
-13.315
-17.315
-19.315
-20.315
-19.315
-19.315
-18.315
-17.315
-16.315
-18.315
-20.315
-19.315
-17.315
-17.315
-16.315
-15.315
-16.315
-16.315
-15.315
-15.315
-16.315
-20.315
-24.315
-24.315
-25.315
-23.315
-17.315
-14.315
-10.315
-8.3149
-11.315
-16.315
-20.315
-24.315
-22.315
-18.315
-16.315
-14.315
-14.315
-17.315
-17.315
-20.315
-21.315
-23.315
-22.315
-21.315
-18.315
-17.315
-13.315
-12.315
-11.315
-12.315
-18.315
-21.315
-21.315
-24.315
-24.315
-25.315
-22.315
-18.315
-15.315
-5.3149
-5.3149
-4.3149
-8.3149
-16.315
-23.315
-29.315
-30.315
-27.315
-22.315
-18.315
-16.315
-14.315
-10.315
-0.31488
3.6851
2.6851
-5.3149
-15.315
-27.315
-31.315
-31.315
-25.315
-20.315
-15.315
-13.315
-13.315
-14.315
-13.315
-15.315
-13.315
-10.315
-8.3149
-4.3149
-5.3149
-8.3149
-13.315
-19.315
-27.315
-27.315
-25.315
-23.315
-19.315
-16.315
-13.315
-15.315
-16.315
-13.315
-11.315
-6.3149
0.68512
5.6851
2.6851
-9.3149
-21.315
-32.315
-33.315
-30.315
-24.315
-18.315
-15.315
-12.315
-10.315
-9.3149
-12.315
-14.315
-14.315
-13.315
-10.315
-5.3149
0.68512
5.6851
9.6851
6.6851
-2.3149
-14.315
-30.315
-36.315
-36.315
-32.315
-28.315
-25.315
-21.315
-18.315
-15.315
-12.315
-10.315
-12.315
-13.315
-12.315
-12.315
-13.315
-11.315
-12.315
-10.315
-8.3149
-6.3149
-5.3149
-3.3149
-6.3149
-9.3149
-12.315
-16.315
-18.315
-17.315
-16.315
-11.315
-10.315
-7.3149
-13.315
-16.315
-20.315
-16.315
-13.315
-13.315
-13.315
-20.315
-22.315
-20.315
-19.315
-16.315
-12.315
-8.3149
-8.3149
-12.315
-16.315
-17.315
-17.315
-17.315
-16.315
-19.315
-18.315
-19.315
-17.315
-18.315
-18.315
-19.315
-20.315
-15.315
-9.3149
-6.3149
-7.3149
-5.3149
-8.3149
-9.3149
-14.315
-16.315
-15.315
-14.315
-9.3149
-11.315
-11.315
-16.315
-16.315
-17.315
-19.315
-16.315
-13.315
-10.315
-7.3149
-7.3149
-7.3149
-12.315
-12.315
-16.315
-18.315
-16.315
-14.315
-10.315
-8.3149
-4.3149
-4.3149
-4.3149
-4.3149
-5.3149
-9.3149
-12.315
-13.315
-14.315
-10.315
-11.315
-10.315
-7.3149
-7.3149
-8.3149
-8.3149
-10.315
-9.3149
-10.315
-13.315
-15.315
-14.315
-10.315
-7.3149
-4.3149
-6.3149
-10.315
-15.315
-14.315
-12.315
-13.315
-14.315
-13.315
-11.315
-11.315
-9.3149
-6.3149
-6.3149
-6.3149
-8.3149
-11.315
-10.315
-12.315
-11.315
-9.3149
-8.3149
-5.3149
-4.3149
-6.3149
-10.315
-10.315
-9.3149
-12.315
-12.315
-12.315
-14.315
-13.315
-13.315
-11.315
-8.3149
-9.3149
-7.3149
-7.3149
-10.315
-11.315
-13.315
-16.315
-17.315
-16.315
-13.315
-6.3149
-6.3149
-0.31488
-1.3149
-6.3149
-6.3149
-9.3149
-13.315
-17.315
-20.315
-22.315
-20.315
-16.315
-8.3149
-3.3149
0.68512
0.68512
-4.3149
-11.315
-19.315
-22.315
-24.315
-19.315
-14.315
-9.3149
-5.3149
-4.3149
-6.3149
-7.3149
-9.3149
-11.315
-11.315
-15.315
-15.315
-15.315
-14.315
-13.315
-12.315
-9.3149
-7.3149
-6.3149
-4.3149
-5.3149
-6.3149
-7.3149
-9.3149
-9.3149
-8.3149
-8.3149
-10.315
-12.315
-12.315
-11.315
-12.315
-10.315
-12.315
-13.315
-12.315
-14.315
-12.315
-13.315
-10.315
-5.3149
-5.3149
-9.3149
-11.315
-15.315
-18.315
-17.315
-19.315
-17.315
-16.315
-18.315
-15.315
-11.315
-7.3149
-7.3149
-2.3149
-4.3149
-11.315
-11.315
-13.315
-13.315
-14.315
-10.315
-11.315
-9.3149
-8.3149
-12.315
-9.3149
-11.315
-12.315
-14.315
-18.315
-17.315
-17.315
-13.315
-12.315
-13.315
-12.315
-12.315
-10.315
-11.315
-11.315
-14.315
-12.315
-11.315
-15.315
-18.315
-18.315
-17.315
-16.315
-14.315
-8.3149
-8.3149
-5.3149
-3.3149
-6.3149
-6.3149
-12.315
-15.315
-18.315
-16.315
-12.315
-7.3149
-5.3149
-2.3149
-4.3149
-9.3149
-13.315
-17.315
-19.315
-19.315
-20.315
-20.315
-17.315
-17.315
-13.315
-15.315
-13.315
-12.315
-11.315
-14.315
-15.315
-18.315
-21.315
-18.315
-16.315
-15.315
-15.315
-16.315
-14.315
-12.315
-13.315
-8.3149
-9.3149
-7.3149
-9.3149
-13.315
-13.315
-18.315
-18.315
-21.315
-23.315
-25.315
-23.315
-17.315
-13.315
-11.315
-8.3149
-4.3149
-7.3149
-10.315
-9.3149
-13.315
-17.315
-15.315
-18.315
-18.315
-15.315
-15.315
-12.315
-6.3149
-4.3149
-5.3149
-8.3149
-10.315
-11.315
-16.315
-16.315
-17.315
-12.315
-10.315
-9.3149
-8.3149
-8.3149
-9.3149
-10.315
-10.315
-12.315
-13.315
-18.315
-21.315
-22.315
-23.315
-20.315
-15.315
-11.315
-7.3149
-3.3149
-3.3149
-2.3149
-7.3149
-11.315
-14.315
-16.315
-15.315
-14.315
-13.315
-10.315
-7.3149
-4.3149
-0.31488
-2.3149
-8.3149
-13.315
-18.315
-21.315
-22.315
-19.315
-14.315
-12.315
-11.315
-8.3149
-9.3149
-8.3149
-10.315
-13.315
-14.315
-10.315
-11.315
-7.3149
-7.3149
-7.3149
-9.3149
-12.315
-13.315
-13.315
-12.315
-11.315
-9.3149
-11.315
-11.315
-9.3149
-9.3149
-11.315
-11.315
-8.3149
-7.3149
-9.3149
-11.315
-13.315
-12.315
-13.315
-13.315
-14.315
-13.315
-13.315
-11.315
-10.315
-11.315
-13.315
-15.315
-16.315
-19.315
-21.315
-18.315
-15.315
-10.315
-6.3149
-7.3149
-11.315
-10.315
-10.315
-8.3149
-6.3149
-6.3149
-4.3149
-8.3149
-13.315
-20.315
-24.315
-23.315
-22.315
-21.315
-20.315
-16.315
-14.315
-14.315
-13.315
-10.315
-9.3149
-9.3149
-8.3149
-14.315
-15.315
-18.315
-17.315
-18.315
-21.315
-21.315
-20.315
-18.315
-14.315
-10.315
-8.3149
-8.3149
-6.3149
-7.3149
-8.3149
-10.315
-13.315
-18.315
-19.315
-19.315
-17.315
-17.315
-12.315
-13.315
-8.3149
-10.315
-12.315
-16.315
-17.315
-20.315
-16.315
-16.315
-14.315
-8.3149
-6.3149
-6.3149
-8.3149
-12.315
-12.315
-15.315
-17.315
-16.315
-16.315
-14.315
-8.3149
-7.3149
-7.3149
-11.315
-14.315
-18.315
-18.315
-16.315
-13.315
-12.315
-11.315
-11.315
-10.315
-8.3149
-10.315
-11.315
-13.315
-13.315
-12.315
-14.315
-13.315
-13.315
-13.315
-10.315
-8.3149
-4.3149
-4.3149
-8.3149
-8.3149
-13.315
-14.315
-17.315
-19.315
-18.315
-15.315
-13.315
-9.3149
-3.3149
0.68512
-0.31488
0.68512
-3.3149
-7.3149
-16.315
-20.315
-24.315
-27.315
-25.315
-22.315
-18.315
-14.315
-9.3149
-4.3149
-1.3149
-0.31488
-0.31488
1.6851
3.6851
5.6851
5.6851
4.6851
0.68512
-1.3149
-2.3149
-1.3149
-0.31488
3.6851
-0.31488
0.68512
0.68512
4.6851
6.6851
8.6851
8.6851
9.6851
5.6851
-0.31488
-5.3149
-12.315
-17.315
-20.315
-18.315
-14.315
-9.3149
-6.3149
-2.3149
-1.3149
-1.3149
-3.3149
-5.3149
-6.3149
-15.315
-20.315
-23.315
-23.315
-21.315
-20.315
-16.315
-13.315
-11.315
-11.315
-10.315
-10.315
-8.3149
-9.3149
-9.3149
-10.315
-13.315
-13.315
-14.315
-14.315
-13.315
-11.315
-11.315
-15.315
-18.315
-21.315
-22.315
-21.315
-17.315
-11.315
-7.3149
-2.3149
-0.31488
0.68512
-1.3149
-0.31488
-0.31488
-0.31488
3.6851
13.685
29.685
42.685
57.685
70.685
81.685
93.685
99.685
90.685
68.685
31.685
-11.315
-44.315
-64.315
-71.315
-67.315
-60.315
-56.315
-55.315
-57.315
-65.315
-68.315
-73.315
-69.315
-67.315
-59.315
-54.315
-45.315
-42.315
-44.315
-47.315
-54.315
-58.315
-61.315
-59.315
-56.315
-51.315
-44.315
-38.315
-34.315
-26.315
-23.315
-16.315
-15.315
-13.315
-12.315
-11.315
-9.3149
-11.315
-11.315
-17.315
-20.315
-22.315
-20.315
-14.315
-12.315
-12.315
-11.315
-14.315
-15.315
-18.315
-16.315
-19.315
-18.315
-17.315
-16.315
-14.315
-11.315
-13.315
-12.315
-13.315
-13.315
-12.315
-9.3149
-8.3149
-5.3149
-7.3149
-8.3149
-9.3149
-11.315
-10.315
-8.3149
-9.3149
-3.3149
-4.3149
-6.3149
-8.3149
-8.3149
-4.3149
0.68512
1.6851
5.6851
5.6851
5.6851
1.6851
0.68512
-0.31488
-4.3149
-3.3149
0.68512
8.6851
13.685
17.685
21.685
22.685
21.685
24.685
23.685
22.685
21.685
19.685
19.685
20.685
23.685
25.685
24.685
24.685
23.685
21.685
23.685
25.685
29.685
30.685
35.685
37.685
34.685
25.685
18.685
12.685
8.6851
6.6851
6.6851
8.6851
9.6851
9.6851
9.6851
10.685
11.685
9.6851
8.6851
6.6851
0.68512
-2.3149
-2.3149
-4.3149
-4.3149
-5.3149
-7.3149
-6.3149
-10.315
-9.3149
-6.3149
-9.3149
-11.315
-12.315
-12.315
-12.315
-13.315
-8.3149
-4.3149
-1.3149
-0.31488
0.68512
-3.3149
-7.3149
-10.315
-15.315
-11.315
-10.315
-9.3149
-7.3149
-6.3149
-4.3149
-5.3149
-4.3149
-2.3149
-3.3149
-7.3149
-8.3149
-7.3149
-7.3149
-4.3149
-1.3149
0.68512
-2.3149
-5.3149
-8.3149
-11.315
-14.315
-12.315
-14.315
-9.3149
-7.3149
-5.3149
-2.3149
-5.3149
-3.3149
-2.3149
-4.3149
-6.3149
-10.315
-10.315
-13.315
-13.315
-13.315
-13.315
-12.315
-9.3149
-9.3149
-9.3149
-8.3149
-8.3149
-9.3149
-9.3149
-10.315
-8.3149
-5.3149
-5.3149
-2.3149
-0.31488
0.68512
-2.3149
-5.3149
-13.315
-17.315
-17.315
-17.315
-15.315
-17.315
-15.315
-15.315
-10.315
-7.3149
-9.3149
-8.3149
-10.315
-14.315
-15.315
-16.315
-12.315
-15.315
-14.315
-15.315
-13.315
-7.3149
-7.3149
-4.3149
-5.3149
-9.3149
-11.315
-14.315
-15.315
-15.315
-15.315
-12.315
-9.3149
-3.3149
-5.3149
-3.3149
-4.3149
-8.3149
-13.315
-16.315
-18.315
-18.315
-14.315
-11.315
-8.3149
-9.3149
-10.315
-12.315
-10.315
-12.315
-14.315
-16.315
-14.315
-16.315
-16.315
-15.315
-14.315
-14.315
-12.315
-11.315
-10.315
-7.3149
-6.3149
-4.3149
-4.3149
-9.3149
-12.315
-15.315
-16.315
-12.315
-10.315
-3.3149
-0.31488
-1.3149
-7.3149
-13.315
-20.315
-20.315
-20.315
-17.315
-11.315
-8.3149
-8.3149
-8.3149
-7.3149
-6.3149
-5.3149
-2.3149
0.68512
-1.3149
-0.31488
-6.3149
-10.315
-11.315
-10.315
-11.315
-9.3149
-2.3149
-4.3149
-4.3149
-7.3149
-7.3149
-7.3149
-4.3149
-3.3149
-2.3149
-3.3149
-3.3149
-3.3149
-2.3149
-3.3149
-2.3149
-7.3149
-4.3149
-3.3149
2.6851
4.6851
8.6851
8.6851
6.6851
4.6851
1.6851
-4.3149
-6.3149
-4.3149
-1.3149
4.6851
7.6851
9.6851
5.6851
-1.3149
-7.3149
-8.3149
-5.3149
-2.3149
-0.31488
-1.3149
-3.3149
-4.3149
-5.3149
-5.3149
-7.3149
-9.3149
-11.315
-14.315
-20.315
-19.315
-22.315
-26.315
-26.315
-23.315
-20.315
-17.315
-17.315
-14.315
-15.315
-17.315
-17.315
-16.315
-19.315
-19.315
-20.315
-23.315
-25.315
-27.315
-26.315
-26.315
-26.315
-24.315
-23.315
-21.315
-17.315
-14.315
-17.315
-18.315
-20.315
-24.315
-25.315
-27.315
-26.315
-25.315
-22.315
-17.315
-14.315
-10.315
-5.3149
2.6851
16.685
32.685
52.685
70.685
88.685
103.69
113.69
110.69
88.685
52.685
8.6851
-31.315
-60.315
-76.315
-82.315
-81.315
-76.315
-72.315
-67.315
-61.315
-60.315
-61.315
-63.315
-63.315
-64.315
-57.315
-48.315
-43.315
-39.315
-41.315
-45.315
-53.315
-59.315
-60.315
-61.315
-57.315
-52.315
-52.315
-51.315
-51.315
-52.315
-48.315
-43.315
-35.315
-28.315
-21.315
-17.315
-17.315
-17.315
-16.315
-16.315
-18.315
-17.315
-18.315
-19.315
-18.315
-19.315
-17.315
-15.315
-17.315
-17.315
-16.315
-16.315
-16.315
-14.315
-14.315
-11.315
-12.315
-12.315
-13.315
-14.315
-12.315
-9.3149
-9.3149
-7.3149
-12.315
-15.315
-19.315
-18.315
-16.315
-9.3149
-0.31488
4.6851
7.6851
3.6851
-0.31488
-6.3149
-12.315
-14.315
-13.315
-14.315
-9.3149
-8.3149
-3.3149
2.6851
11.685
17.685
26.685
30.685
26.685
17.685
12.685
9.6851
9.6851
13.685
18.685
21.685
25.685
25.685
31.685
34.685
35.685
35.685
35.685
33.685
27.685
25.685
24.685
26.685
33.685
40.685
44.685
39.685
21.685
9.6851
2.6851
0.68512
3.6851
5.6851
8.6851
10.685
10.685
6.6851
6.6851
3.6851
-0.31488
-4.3149
-7.3149
-9.3149
-13.315
-17.315
-17.315
-17.315
-12.315
-4.3149
1.6851
0.68512
-4.3149
-17.315
-27.315
-36.315
-40.315
-38.315
-35.315
-32.315
-28.315
-24.315
-21.315
-20.315
-20.315
-20.315
-15.315
-10.315
-11.315
-15.315
-23.315
-29.315
-34.315
-29.315
-24.315
-16.315
-11.315
-5.3149
-5.3149
-6.3149
-5.3149
-4.3149
-4.3149
-0.31488
5.6851
9.6851
13.685
7.6851
-3.3149
-15.315
-24.315
-29.315
-28.315
-22.315
-16.315
-10.315
0.68512
5.6851
8.6851
4.6851
-4.3149
-12.315
-17.315
-23.315
-23.315
-23.315
-17.315
-16.315
-13.315
-8.3149
-7.3149
-5.3149
-4.3149
-7.3149
-10.315
-15.315
-17.315
-16.315
-17.315
-17.315
-13.315
-9.3149
-7.3149
-5.3149
-6.3149
-11.315
-11.315
-18.315
-18.315
-18.315
-17.315
-15.315
-6.3149
-2.3149
0.68512
-0.31488
-5.3149
-7.3149
-10.315
-12.315
-10.315
-5.3149
3.6851
11.685
24.685
34.685
52.685
75.685
97.685
111.69
121.69
112.69
84.685
36.685
-10.315
-49.315
-72.315
-79.315
-75.315
-65.315
-61.315
-59.315
-57.315
-59.315
-62.315
-62.315
-69.315
-69.315
-65.315
-57.315
-44.315
-32.315
-28.315
-29.315
-40.315
-52.315
-64.315
-68.315
-64.315
-56.315
-46.315
-35.315
-24.315
-17.315
-16.315
-14.315
-15.315
-19.315
-18.315
-19.315
-14.315
-11.315
-6.3149
-1.3149
-1.3149
-5.3149
-10.315
-14.315
-15.315
-16.315
-18.315
-20.315
-18.315
-15.315
-10.315
-9.3149
-6.3149
-4.3149
-1.3149
-0.31488
0.68512
-0.31488
-5.3149
-7.3149
-12.315
-12.315
-15.315
-14.315
-12.315
-10.315
-5.3149
-1.3149
3.6851
7.6851
10.685
9.6851
8.6851
7.6851
4.6851
-1.3149
-3.3149
-2.3149
-2.3149
0.68512
2.6851
3.6851
5.6851
8.6851
9.6851
11.685
19.685
23.685
30.685
39.685
46.685
50.685
46.685
41.685
35.685
27.685
20.685
23.685
28.685
32.685
37.685
42.685
43.685
46.685
46.685
45.685
41.685
38.685
35.685
32.685
31.685
30.685
28.685
27.685
24.685
20.685
18.685
15.685
11.685
9.6851
10.685
11.685
8.6851
4.6851
2.6851
0.68512
-5.3149
-6.3149
-7.3149
-6.3149
-5.3149
-8.3149
-8.3149
-8.3149
-8.3149
-8.3149
-10.315
-20.315
-23.315
-25.315
-25.315
-20.315
-15.315
-10.315
-7.3149
-5.3149
-7.3149
-7.3149
-13.315
-13.315
-18.315
-15.315
-14.315
-15.315
-20.315
-22.315
-21.315
-22.315
-16.315
-11.315
-8.3149
-4.3149
-5.3149
-8.3149
-11.315
-14.315
-20.315
-25.315
-24.315
-24.315
-20.315
-17.315
-13.315
-11.315
-11.315
-11.315
-14.315
-15.315
-19.315
-21.315
-19.315
-17.315
-16.315
-9.3149
-3.3149
-3.3149
-1.3149
-2.3149
-4.3149
-9.3149
-15.315
-20.315
-22.315
-22.315
-19.315
-13.315
-10.315
-4.3149
-3.3149
-2.3149
-5.3149
-10.315
-13.315
-20.315
-23.315
-23.315
-20.315
-16.315
-11.315
-8.3149
-9.3149
-9.3149
-10.315
-7.3149
-1.3149
0.68512
-0.31488
-7.3149
-17.315
-23.315
-24.315
-22.315
-21.315
-17.315
-16.315
-13.315
-16.315
-15.315
-14.315
-12.315
-6.3149
0.68512
3.6851
3.6851
-4.3149
-13.315
-20.315
-27.315
-28.315
-27.315
-23.315
-15.315
-12.315
-7.3149
-1.3149
1.6851
4.6851
8.6851
9.6851
14.685
22.685
36.685
55.685
77.685
94.685
104.69
106.69
92.685
61.685
16.685
-29.315
-60.315
-78.315
-83.315
-78.315
-69.315
-61.315
-56.315
-53.315
-50.315
-54.315
-54.315
-59.315
-60.315
-58.315
-53.315
-48.315
-44.315
-44.315
-47.315
-50.315
-54.315
-58.315
-55.315
-51.315
-45.315
-37.315
-31.315
-25.315
-20.315
-19.315
-16.315
-14.315
-15.315
-14.315
-11.315
-8.3149
-5.3149
-3.3149
-4.3149
-9.3149
-15.315
-19.315
-20.315
-19.315
-16.315
-14.315
-12.315
-10.315
-9.3149
-7.3149
-9.3149
-11.315
-14.315
-12.315
-12.315
-11.315
-7.3149
-5.3149
-6.3149
-8.3149
-8.3149
-12.315
-10.315
-11.315
-7.3149
-2.3149
2.6851
-1.3149
0.68512
-0.31488
1.6851
1.6851
6.6851
7.6851
5.6851
2.6851
0.68512
-0.31488
0.68512
4.6851
9.6851
10.685
12.685
14.685
15.685
19.685
21.685
22.685
20.685
24.685
23.685
28.685
31.685
33.685
33.685
33.685
32.685
32.685
32.685
30.685
32.685
31.685
32.685
33.685
30.685
31.685
31.685
30.685
27.685
25.685
18.685
14.685
10.685
11.685
7.6851
7.6851
7.6851
6.6851
7.6851
5.6851
4.6851
2.6851
0.68512
-0.31488
-4.3149
-4.3149
-8.3149
-14.315
-15.315
-17.315
-17.315
-16.315
-12.315
-13.315
-12.315
-13.315
-15.315
-12.315
-12.315
-11.315
-12.315
-14.315
-16.315
-20.315
-20.315
-21.315
-23.315
-20.315
-17.315
-17.315
-15.315
-11.315
-4.3149
-7.3149
-9.3149
-14.315
-22.315
-21.315
-24.315
-22.315
-20.315
-17.315
-12.315
-12.315
-10.315
-10.315
-8.3149
-11.315
-10.315
-12.315
-16.315
-18.315
-15.315
-15.315
-14.315
-13.315
-11.315
-10.315
-7.3149
-5.3149
-5.3149
-9.3149
-13.315
-13.315
-17.315
-18.315
-20.315
-23.315
-20.315
-20.315
-19.315
-17.315
-11.315
-8.3149
-5.3149
0.68512
0.68512
-0.31488
-9.3149
-14.315
-21.315
-29.315
-33.315
-35.315
-38.315
-33.315
-27.315
-23.315
-21.315
-15.315
-16.315
-16.315
-16.315
-14.315
-15.315
-16.315
-19.315
-21.315
-21.315
-25.315
-24.315
-21.315
-14.315
-10.315
-6.3149
-7.3149
-9.3149
-17.315
-26.315
-30.315
-32.315
-31.315
-27.315
-21.315
-18.315
-13.315
-11.315
-8.3149
-7.3149
-8.3149
-8.3149
-18.315
-29.315
-36.315
-36.315
-34.315
-26.315
-20.315
-15.315
-13.315
-12.315
-15.315
-15.315
-17.315
-14.315
-12.315
-7.3149
-6.3149
-8.3149
-14.315
-21.315
-27.315
-33.315
-31.315
-28.315
-26.315
-22.315
-17.315
-14.315
-12.315
-9.3149
-10.315
-9.3149
-13.315
-17.315
-21.315
-23.315
-25.315
-27.315
-25.315
-23.315
-20.315
-18.315
-15.315
-15.315
-14.315
-15.315
-15.315
-16.315
-17.315
-20.315
-21.315
-20.315
-20.315
-16.315
-13.315
-6.3149
-10.315
-14.315
-19.315
-25.315
-29.315
-27.315
-23.315
-20.315
-18.315
-20.315
-17.315
-15.315
-13.315
-10.315
-7.3149
-6.3149
-13.315
-23.315
-31.315
-34.315
-33.315
-27.315
-20.315
-13.315
-10.315
-5.3149
-4.3149
-4.3149
-6.3149
-12.315
-17.315
-24.315
-28.315
-31.315
-29.315
-24.315
-18.315
-15.315
-14.315
-16.315
-17.315
-20.315
-23.315
-22.315
-20.315
-17.315
-19.315
-18.315
-18.315
-16.315
-15.315
-14.315
-16.315
-20.315
-23.315
-24.315
-25.315
-21.315
-18.315
-15.315
-15.315
-16.315
-19.315
-20.315
-19.315
-20.315
-17.315
-15.315
-18.315
-19.315
-17.315
-16.315
-13.315
-12.315
-11.315
-17.315
-19.315
-22.315
-22.315
-22.315
-19.315
-18.315
-16.315
-13.315
-14.315
-13.315
-14.315
-15.315
-16.315
-22.315
-24.315
-23.315
-20.315
-17.315
-17.315
-17.315
-16.315
-18.315
-17.315
-18.315
-15.315
-12.315
-10.315
-10.315
-11.315
-12.315
-13.315
-13.315
-14.315
-14.315
-16.315
-17.315
-17.315
-21.315
-23.315
-27.315
-26.315
-21.315
-18.315
-14.315
-10.315
-11.315
-15.315
-19.315
-21.315
-22.315
-20.315
-19.315
-20.315
-19.315
-18.315
-14.315
-16.315
-11.315
-13.315
-12.315
-12.315
-14.315
-16.315
-19.315
-23.315
-23.315
-20.315
-20.315
-20.315
-16.315
-15.315
-14.315
-16.315
-13.315
-6.3149
-0.31488
0.68512
-3.3149
-8.3149
-18.315
-26.315
-30.315
-29.315
-25.315
-23.315
-20.315
-19.315
-18.315
-17.315
-14.315
-14.315
-9.3149
-10.315
-10.315
-11.315
-9.3149
-8.3149
-9.3149
-5.3149
-4.3149
-8.3149
-13.315
-17.315
-20.315
-20.315
-20.315
-18.315
-19.315
-19.315
-20.315
-19.315
-19.315
-15.315
-13.315
-10.315
-8.3149
-6.3149
-8.3149
-10.315
-15.315
-14.315
-17.315
-18.315
-16.315
-15.315
-17.315
-14.315
-11.315
-12.315
-10.315
-11.315
-13.315
-15.315
-17.315
-19.315
-18.315
-20.315
-16.315
-14.315
-9.3149
-6.3149
-8.3149
-10.315
-14.315
-20.315
-23.315
-21.315
-19.315
-19.315
-21.315
-18.315
-16.315
-16.315
-13.315
-11.315
-13.315
-13.315
-11.315
-14.315
-13.315
-12.315
-13.315
-12.315
-12.315
-13.315
-13.315
-14.315
-12.315
-9.3149
-7.3149
-2.3149
-4.3149
-4.3149
-5.3149
-8.3149
-9.3149
-11.315
-13.315
-19.315
-20.315
-20.315
-20.315
-17.315
-14.315
-12.315
-8.3149
-6.3149
-9.3149
-11.315
-15.315
-14.315
-14.315
-14.315
-13.315
-15.315
-19.315
-19.315
-17.315
-12.315
-9.3149
-8.3149
-9.3149
-10.315
-14.315
-14.315
-16.315
-13.315
-13.315
-13.315
-14.315
-14.315
-10.315
-8.3149
-8.3149
-9.3149
-10.315
-12.315
-12.315
-10.315
-12.315
-10.315
-9.3149
-7.3149
-4.3149
-7.3149
-11.315
-15.315
-16.315
-16.315
-14.315
-13.315
-8.3149
-5.3149
-3.3149
-5.3149
-4.3149
-2.3149
0.68512
1.6851
4.6851
1.6851
0.68512
0.68512
1.6851
2.6851
1.6851
5.6851
7.6851
10.685
8.6851
5.6851
0.68512
-1.3149
-5.3149
-9.3149
-7.3149
-6.3149
-4.3149
-0.31488
3.6851
3.6851
-0.31488
-4.3149
-12.315
-15.315
-15.315
-17.315
-11.315
-10.315
-10.315
-12.315
-15.315
-14.315
-13.315
-10.315
-9.3149
-7.3149
-11.315
-14.315
-17.315
-16.315
-14.315
-13.315
-11.315
-12.315
-13.315
-13.315
-15.315
-17.315
-16.315
-14.315
-16.315
-15.315
-14.315
-14.315
-15.315
-13.315
-12.315
-9.3149
-10.315
-11.315
-11.315
-10.315
-6.3149
0.68512
7.6851
16.685
22.685
29.685
37.685
47.685
64.685
78.685
94.685
99.685
93.685
76.685
40.685
2.6851
-33.315
-55.315
-68.315
-73.315
-72.315
-66.315
-63.315
-56.315
-50.315
-51.315
-54.315
-56.315
-54.315
-53.315
-52.315
-49.315
-49.315
-47.315
-47.315
-49.315
-48.315
-48.315
-46.315
-44.315
-41.315
-35.315
-33.315
-25.315
-19.315
-15.315
-11.315
-8.3149
-8.3149
-8.3149
-11.315
-15.315
-20.315
-18.315
-17.315
-18.315
-15.315
-11.315
-9.3149
-11.315
-12.315
-12.315
-5.3149
-2.3149
0.68512
-3.3149
-7.3149
-12.315
-14.315
-18.315
-20.315
-19.315
-16.315
-15.315
-10.315
-5.3149
-2.3149
2.6851
4.6851
3.6851
-0.31488
-6.3149
-14.315
-18.315
-19.315
-15.315
-10.315
-3.3149
0.68512
3.6851
1.6851
2.6851
3.6851
8.6851
9.6851
10.685
8.6851
5.6851
4.6851
6.6851
9.6851
9.6851
10.685
12.685
10.685
11.685
11.685
14.685
19.685
24.685
33.685
33.685
35.685
32.685
28.685
24.685
22.685
19.685
14.685
13.685
15.685
18.685
23.685
26.685
31.685
31.685
30.685
30.685
30.685
33.685
36.685
39.685
38.685
29.685
22.685
11.685
8.6851
8.6851
7.6851
10.685
13.685
10.685
8.6851
7.6851
4.6851
3.6851
4.6851
8.6851
10.685
11.685
6.6851
1.6851
-5.3149
-9.3149
-8.3149
-8.3149
-12.315
-14.315
-18.315
-19.315
-20.315
-20.315
-18.315
-15.315
-14.315
-14.315
-16.315
-15.315
-12.315
-11.315
-12.315
-11.315
-12.315
-11.315
-11.315
-8.3149
-7.3149
-7.3149
-4.3149
-7.3149
-7.3149
-4.3149
-4.3149
-3.3149
-1.3149
-1.3149
-0.31488
-1.3149
-0.31488
1.6851
-0.31488
-0.31488
-2.3149
-3.3149
-7.3149
-4.3149
-2.3149
-1.3149
2.6851
1.6851
0.68512
0.68512
-2.3149
-3.3149
-3.3149
-3.3149
-4.3149
-3.3149
-1.3149
0.68512
0.68512
-0.31488
0.68512
-1.3149
-3.3149
-6.3149
-9.3149
-8.3149
-5.3149
0.68512
5.6851
4.6851
0.68512
-3.3149
-5.3149
-12.315
-14.315
-15.315
-15.315
-14.315
-13.315
-5.3149
-0.31488
3.6851
5.6851
4.6851
1.6851
0.68512
-4.3149
-6.3149
-7.3149
-7.3149
-5.3149
0.68512
0.68512
2.6851
1.6851
-0.31488
2.6851
8.6851
19.685
31.685
48.685
64.685
75.685
84.685
82.685
60.685
25.685
-18.315
-49.315
-65.315
-66.315
-58.315
-47.315
-40.315
-31.315
-27.315
-25.315
-29.315
-33.315
-44.315
-49.315
-48.315
-43.315
-40.315
-34.315
-32.315
-32.315
-33.315
-37.315
-42.315
-45.315
-47.315
-46.315
-40.315
-33.315
-26.315
-23.315
-19.315
-15.315
-8.3149
-2.3149
-2.3149
-3.3149
-1.3149
-1.3149
1.6851
-1.3149
-4.3149
-7.3149
-10.315
-14.315
-13.315
-9.3149
-5.3149
0.68512
4.6851
5.6851
0.68512
-4.3149
-7.3149
-8.3149
-6.3149
-4.3149
-1.3149
5.6851
3.6851
3.6851
3.6851
-3.3149
-4.3149
-5.3149
-4.3149
-3.3149
-2.3149
-0.31488
3.6851
6.6851
5.6851
4.6851
4.6851
2.6851
3.6851
2.6851
3.6851
2.6851
-0.31488
0.68512
2.6851
3.6851
8.6851
12.685
15.685
15.685
13.685
10.685
9.6851
8.6851
13.685
19.685
25.685
27.685
28.685
29.685
30.685
30.685
31.685
28.685
29.685
28.685
28.685
33.685
32.685
34.685
33.685
32.685
32.685
31.685
30.685
31.685
32.685
32.685
35.685
34.685
27.685
21.685
14.685
9.6851
3.6851
-0.31488
-0.31488
-1.3149
0.68512
4.6851
5.6851
8.6851
8.6851
8.6851
8.6851
2.6851
-2.3149
-9.3149
-13.315
-14.315
-12.315
-13.315
-9.3149
-6.3149
-6.3149
-2.3149
-0.31488
1.6851
-1.3149
-5.3149
-7.3149
-8.3149
-10.315
-11.315
-9.3149
-5.3149
-4.3149
-2.3149
-3.3149
-3.3149
-0.31488
-0.31488
-3.3149
-6.3149
-10.315
-11.315
-13.315
-8.3149
-5.3149
-5.3149
-4.3149
-2.3149
-2.3149
-4.3149
-6.3149
-8.3149
-10.315
-16.315
-16.315
-16.315
-14.315
-8.3149
-5.3149
-3.3149
-1.3149
-2.3149
-4.3149
-5.3149
-3.3149
-2.3149
3.6851
8.6851
10.685
9.6851
3.6851
-2.3149
-5.3149
-9.3149
-10.315
-12.315
-13.315
-14.315
-11.315
-11.315
-9.3149
-7.3149
-7.3149
-2.3149
-5.3149
-4.3149
-3.3149
-4.3149
-4.3149
-5.3149
-4.3149
-5.3149
-5.3149
-2.3149
-3.3149
-0.31488
2.6851
-1.3149
-1.3149
-0.31488
-1.3149
2.6851
4.6851
5.6851
-0.31488
-6.3149
-12.315
-12.315
-9.3149
-9.3149
-8.3149
-3.3149
-2.3149
-0.31488
1.6851
0.68512
0.68512
0.68512
2.6851
6.6851
9.6851
8.6851
6.6851
3.6851
3.6851
7.6851
10.685
18.685
24.685
31.685
34.685
41.685
52.685
67.685
79.685
91.685
100.69
93.685
69.685
34.685
-3.3149
-32.315
-50.315
-58.315
-60.315
-60.315
-56.315
-50.315
-42.315
-35.315
-31.315
-31.315
-35.315
-41.315
-40.315
-37.315
-28.315
-17.315
-13.315
-15.315
-25.315
-31.315
-38.315
-38.315
-37.315
-28.315
-24.315
-20.315
-17.315
-18.315
-13.315
-9.3149
0.68512
3.6851
5.6851
9.6851
12.685
13.685
12.685
9.6851
5.6851
-0.31488
-3.3149
-3.3149
-2.3149
1.6851
7.6851
14.685
18.685
19.685
13.685
7.6851
4.6851
6.6851
7.6851
9.6851
12.685
14.685
13.685
8.6851
2.6851
-4.3149
-4.3149
-1.3149
2.6851
11.685
14.685
12.685
10.685
6.6851
4.6851
8.6851
14.685
20.685
23.685
22.685
23.685
20.685
18.685
17.685
18.685
19.685
26.685
31.685
35.685
39.685
41.685
41.685
41.685
35.685
33.685
37.685
37.685
42.685
45.685
47.685
46.685
46.685
46.685
48.685
50.685
51.685
53.685
51.685
46.685
42.685
40.685
40.685
43.685
44.685
48.685
44.685
39.685
33.685
28.685
25.685
24.685
24.685
28.685
29.685
29.685
26.685
20.685
18.685
15.685
16.685
17.685
16.685
13.685
6.6851
7.6851
2.6851
2.6851
3.6851
6.6851
6.6851
5.6851
3.6851
-1.3149
-3.3149
-3.3149
-1.3149
2.6851
2.6851
4.6851
6.6851
5.6851
6.6851
5.6851
1.6851
-0.31488
-2.3149
0.68512
3.6851
7.6851
9.6851
10.685
7.6851
2.6851
-1.3149
-1.3149
-0.31488
-0.31488
1.6851
2.6851
3.6851
4.6851
0.68512
-4.3149
-7.3149
-11.315
-9.3149
-9.3149
-3.3149
-0.31488
0.68512
0.68512
-2.3149
-5.3149
-5.3149
-3.3149
4.6851
3.6851
-1.3149
-1.3149
-4.3149
-7.3149
-6.3149
-4.3149
-0.31488
-0.31488
-0.31488
-2.3149
-0.31488
-2.3149
-1.3149
-1.3149
-1.3149
-9.3149
-8.3149
-9.3149
-9.3149
-9.3149
-3.3149
-0.31488
3.6851
5.6851
3.6851
3.6851
3.6851
0.68512
-2.3149
-3.3149
-5.3149
-1.3149
0.68512
2.6851
1.6851
0.68512
-1.3149
-4.3149
-8.3149
-6.3149
-3.3149
-2.3149
-1.3149
-1.3149
-2.3149
-3.3149
1.6851
1.6851
-0.31488
-4.3149
-6.3149
-7.3149
-7.3149
-4.3149
0.68512
3.6851
2.6851
5.6851
3.6851
7.6851
7.6851
7.6851
4.6851
1.6851
-0.31488
-0.31488
4.6851
10.685
20.685
28.685
44.685
56.685
72.685
89.685
103.69
110.69
104.69
81.685
42.685
3.6851
-29.315
-50.315
-59.315
-60.315
-55.315
-49.315
-43.315
-38.315
-38.315
-42.315
-46.315
-53.315
-51.315
-48.315
-43.315
-31.315
-26.315
-23.315
-23.315
-27.315
-35.315
-41.315
-43.315
-38.315
-35.315
-33.315
-32.315
-32.315
-28.315
-23.315
-18.315
-14.315
-9.3149
-10.315
-7.3149
-3.3149
1.6851
1.6851
6.6851
9.6851
6.6851
5.6851
2.6851
-2.3149
-7.3149
-10.315
-7.3149
-2.3149
-2.3149
3.6851
5.6851
5.6851
2.6851
1.6851
0.68512
-0.31488
-2.3149
-0.31488
0.68512
4.6851
5.6851
7.6851
8.6851
8.6851
4.6851
2.6851
1.6851
1.6851
2.6851
5.6851
8.6851
11.685
15.685
17.685
20.685
23.685
20.685
19.685
13.685
11.685
7.6851
10.685
11.685
12.685
19.685
21.685
25.685
28.685
35.685
35.685
38.685
37.685
38.685
36.685
36.685
34.685
37.685
35.685
38.685
38.685
36.685
37.685
35.685
34.685
32.685
30.685
30.685
32.685
36.685
34.685
33.685
33.685
30.685
28.685
24.685
19.685
17.685
10.685
9.6851
7.6851
9.6851
12.685
17.685
16.685
11.685
5.6851
-1.3149
-4.3149
-7.3149
-5.3149
-3.3149
-2.3149
-2.3149
-4.3149
-6.3149
-7.3149
-6.3149
-6.3149
-3.3149
1.6851
2.6851
-1.3149
-4.3149
-5.3149
-5.3149
-3.3149
-2.3149
-2.3149
-4.3149
-2.3149
-4.3149
-0.31488
0.68512
0.68512
1.6851
2.6851
4.6851
4.6851
6.6851
7.6851
8.6851
9.6851
7.6851
5.6851
1.6851
-4.3149
-7.3149
-6.3149
0.68512
8.6851
14.685
13.685
10.685
3.6851
-1.3149
-9.3149
-11.315
-9.3149
-3.3149
2.6851
7.6851
10.685
9.6851
2.6851
-1.3149
-3.3149
-4.3149
-0.31488
1.6851
1.6851
2.6851
0.68512
-1.3149
-4.3149
-4.3149
-5.3149
0.68512
3.6851
2.6851
-1.3149
-3.3149
-4.3149
-5.3149
-3.3149
-3.3149
-6.3149
-5.3149
-7.3149
-7.3149
-6.3149
-5.3149
-7.3149
-6.3149
-7.3149
-9.3149
-10.315
-8.3149
-7.3149
-3.3149
-4.3149
-4.3149
-4.3149
-3.3149
0.68512
1.6851
1.6851
-0.31488
-4.3149
-6.3149
-8.3149
-6.3149
-4.3149
-6.3149
-7.3149
-7.3149
-7.3149
-7.3149
-3.3149
-0.31488
-1.3149
-1.3149
-0.31488
-1.3149
-3.3149
-5.3149
-5.3149
-2.3149
-8.3149
-7.3149
-9.3149
-13.315
-12.315
-9.3149
-10.315
-5.3149
-0.31488
0.68512
3.6851
3.6851
-1.3149
-3.3149
-4.3149
-4.3149
-3.3149
-0.31488
1.6851
3.6851
-1.3149
-2.3149
-6.3149
-11.315
-17.315
-19.315
-17.315
-8.3149
-3.3149
1.6851
1.6851
-1.3149
-3.3149
-6.3149
-3.3149
-2.3149
-2.3149
-6.3149
-10.315
-8.3149
-8.3149
-7.3149
-5.3149
-4.3149
-7.3149
-8.3149
-3.3149
-2.3149
-3.3149
-8.3149
-10.315
-14.315
-16.315
-12.315
-9.3149
-4.3149
-2.3149
-2.3149
-1.3149
-5.3149
-5.3149
-5.3149
-7.3149
-6.3149
-9.3149
-9.3149
-6.3149
-4.3149
-2.3149
-3.3149
-2.3149
-3.3149
-6.3149
-10.315
-14.315
-16.315
-17.315
-12.315
-8.3149
-2.3149
-0.31488
-0.31488
0.68512
-2.3149
-5.3149
-6.3149
-5.3149
-5.3149
-5.3149
-5.3149
-5.3149
-1.3149
0.68512
2.6851
0.68512
-1.3149
-1.3149
-3.3149
-3.3149
-1.3149
-1.3149
-0.31488
-2.3149
-3.3149
-3.3149
-1.3149
-3.3149
-1.3149
-2.3149
-3.3149
-4.3149
-4.3149
-4.3149
-3.3149
-2.3149
-2.3149
-3.3149
-6.3149
-5.3149
-6.3149
-6.3149
-6.3149
-5.3149
-5.3149
-4.3149
-5.3149
-2.3149
1.6851
2.6851
4.6851
-0.31488
-0.31488
-1.3149
-4.3149
-3.3149
0.68512
3.6851
1.6851
2.6851
0.68512
-7.3149
-10.315
-12.315
-10.315
-8.3149
-0.31488
1.6851
3.6851
1.6851
-2.3149
-6.3149
-6.3149
-9.3149
-8.3149
-8.3149
-8.3149
-5.3149
-4.3149
-3.3149
-5.3149
-2.3149
-2.3149
-3.3149
-0.31488
-0.31488
-0.31488
-1.3149
-0.31488
-0.31488
-1.3149
-4.3149
-6.3149
-7.3149
-7.3149
-4.3149
-3.3149
-3.3149
-6.3149
-3.3149
-3.3149
-0.31488
0.68512
-0.31488
1.6851
3.6851
-2.3149
-4.3149
-7.3149
-6.3149
-5.3149
-7.3149
-6.3149
-4.3149
-0.31488
-1.3149
-1.3149
-0.31488
-0.31488
1.6851
5.6851
2.6851
1.6851
-0.31488
-1.3149
-2.3149
-4.3149
-6.3149
-8.3149
-12.315
-11.315
-8.3149
-5.3149
-1.3149
1.6851
0.68512
-2.3149
-2.3149
-0.31488
-5.3149
-5.3149
-6.3149
-5.3149
-3.3149
-3.3149
0.68512
-2.3149
-5.3149
-6.3149
-7.3149
-5.3149
-7.3149
-6.3149
-5.3149
-5.3149
-5.3149
-1.3149
-3.3149
2.6851
0.68512
0.68512
-2.3149
-4.3149
-5.3149
-5.3149
-3.3149
-3.3149
-3.3149
4.6851
7.6851
7.6851
2.6851
-0.31488
-7.3149
-9.3149
-7.3149
-5.3149
-4.3149
-2.3149
-3.3149
0.68512
2.6851
3.6851
1.6851
3.6851
6.6851
5.6851
1.6851
-1.3149
-5.3149
-10.315
-13.315
-8.3149
-10.315
-5.3149
0.68512
1.6851
2.6851
0.68512
2.6851
1.6851
3.6851
2.6851
1.6851
2.6851
-0.31488
-2.3149
-4.3149
-6.3149
-10.315
-11.315
-12.315
-7.3149
-7.3149
-1.3149
7.6851
12.685
21.685
24.685
23.685
15.685
2.6851
-14.315
-27.315
-32.315
-26.315
-19.315
-10.315
-3.3149
-3.3149
-1.3149
-2.3149
-2.3149
-1.3149
3.6851
6.6851
4.6851
2.6851
3.6851
2.6851
0.68512
-1.3149
-0.31488
1.6851
0.68512
-0.31488
-0.31488
-1.3149
-2.3149
-0.31488
0.68512
-1.3149
-1.3149
-1.3149
-2.3149
-4.3149
-4.3149
-5.3149
-7.3149
-7.3149
-3.3149
0.68512
-0.31488
0.68512
-1.3149
-4.3149
-3.3149
-3.3149
-5.3149
-1.3149
0.68512
1.6851
1.6851
-5.3149
-6.3149
-7.3149
-8.3149
-4.3149
-0.31488
1.6851
0.68512
0.68512
-0.31488
-0.31488
-3.3149
-5.3149
-7.3149
-7.3149
-2.3149
-0.31488
3.6851
5.6851
6.6851
6.6851
5.6851
4.6851
3.6851
4.6851
2.6851
3.6851
2.6851
-1.3149
-4.3149
-5.3149
-5.3149
-2.3149
1.6851
4.6851
10.685
10.685
13.685
10.685
9.6851
11.685
13.685
13.685
11.685
9.6851
4.6851
3.6851
1.6851
3.6851
6.6851
9.6851
12.685
13.685
11.685
10.685
6.6851
7.6851
7.6851
8.6851
7.6851
10.685
7.6851
5.6851
4.6851
1.6851
-0.31488
0.68512
1.6851
-3.3149
-5.3149
-7.3149
-8.3149
-7.3149
-3.3149
-3.3149
-0.31488
-3.3149
-5.3149
-6.3149
-4.3149
-5.3149
-6.3149
-8.3149
-7.3149
-8.3149
-11.315
-9.3149
-7.3149
-2.3149
-3.3149
-1.3149
-1.3149
-3.3149
-5.3149
-10.315
-10.315
-9.3149
-6.3149
-4.3149
1.6851
2.6851
2.6851
3.6851
3.6851
-0.31488
3.6851
6.6851
11.685
18.685
29.685
38.685
48.685
64.685
79.685
91.685
94.685
83.685
57.685
18.685
-17.315
-43.315
-53.315
-54.315
-48.315
-44.315
-44.315
-46.315
-42.315
-35.315
-37.315
-37.315
-43.315
-47.315
-49.315
-48.315
-41.315
-33.315
-24.315
-23.315
-20.315
-23.315
-30.315
-37.315
-44.315
-47.315
-42.315
-36.315
-29.315
-21.315
-16.315
-12.315
-11.315
-8.3149
-4.3149
-2.3149
3.6851
4.6851
5.6851
6.6851
4.6851
-0.31488
-3.3149
-5.3149
-6.3149
-6.3149
-6.3149
-5.3149
-3.3149
0.68512
7.6851
13.685
15.685
14.685
10.685
3.6851
-3.3149
-8.3149
-10.315
-9.3149
-5.3149
-1.3149
2.6851
7.6851
9.6851
7.6851
7.6851
5.6851
1.6851
0.68512
3.6851
3.6851
8.6851
10.685
13.685
15.685
16.685
14.685
12.685
14.685
17.685
17.685
16.685
12.685
13.685
11.685
11.685
13.685
20.685
24.685
27.685
27.685
22.685
20.685
23.685
25.685
28.685
30.685
30.685
27.685
27.685
29.685
28.685
32.685
36.685
37.685
39.685
40.685
42.685
42.685
43.685
43.685
45.685
44.685
40.685
43.685
42.685
41.685
41.685
36.685
34.685
32.685
33.685
32.685
34.685
33.685
34.685
32.685
32.685
29.685
24.685
19.685
17.685
14.685
12.685
14.685
20.685
17.685
18.685
14.685
12.685
13.685
14.685
15.685
10.685
6.6851
4.6851
4.6851
4.6851
5.6851
7.6851
9.6851
9.6851
5.6851
4.6851
2.6851
1.6851
2.6851
5.6851
7.6851
12.685
14.685
13.685
14.685
11.685
8.6851
7.6851
4.6851
6.6851
10.685
14.685
15.685
11.685
8.6851
8.6851
9.6851
11.685
9.6851
8.6851
6.6851
6.6851
7.6851
10.685
13.685
12.685
11.685
11.685
15.685
13.685
9.6851
9.6851
6.6851
3.6851
2.6851
3.6851
7.6851
10.685
11.685
10.685
13.685
14.685
14.685
14.685
13.685
9.6851
9.6851
9.6851
10.685
9.6851
7.6851
3.6851
3.6851
4.6851
4.6851
5.6851
2.6851
4.6851
2.6851
5.6851
5.6851
9.6851
7.6851
8.6851
9.6851
9.6851
3.6851
0.68512
1.6851
-1.3149
2.6851
2.6851
5.6851
8.6851
5.6851
5.6851
4.6851
3.6851
3.6851
2.6851
2.6851
6.6851
7.6851
7.6851
6.6851
9.6851
6.6851
4.6851
3.6851
1.6851
-0.31488
-2.3149
-0.31488
0.68512
5.6851
6.6851
9.6851
8.6851
5.6851
2.6851
2.6851
4.6851
7.6851
9.6851
8.6851
8.6851
2.6851
0.68512
-3.3149
-4.3149
-0.31488
2.6851
7.6851
10.685
10.685
10.685
2.6851
-1.3149
-1.3149
-0.31488
-0.31488
2.6851
2.6851
-0.31488
-2.3149
-4.3149
-3.3149
-1.3149
-0.31488
0.68512
-0.31488
0.68512
0.68512
1.6851
4.6851
7.6851
9.6851
8.6851
4.6851
1.6851
-5.3149
-6.3149
-4.3149
3.6851
5.6851
7.6851
3.6851
0.68512
0.68512
-0.31488
-3.3149
-2.3149
-4.3149
3.6851
1.6851
1.6851
-1.3149
-0.31488
-1.3149
1.6851
2.6851
2.6851
2.6851
0.68512
0.68512
2.6851
3.6851
6.6851
10.685
10.685
5.6851
2.6851
-3.3149
-3.3149
-5.3149
-2.3149
-0.31488
3.6851
0.68512
-3.3149
-3.3149
-6.3149
-7.3149
-2.3149
-1.3149
1.6851
2.6851
5.6851
4.6851
6.6851
6.6851
7.6851
9.6851
9.6851
8.6851
3.6851
1.6851
1.6851
-0.31488
-1.3149
-0.31488
-0.31488
-0.31488
-0.31488
2.6851
5.6851
7.6851
8.6851
10.685
9.6851
5.6851
4.6851
4.6851
3.6851
3.6851
6.6851
7.6851
11.685
11.685
9.6851
7.6851
1.6851
0.68512
-1.3149
1.6851
-0.31488
2.6851
8.6851
12.685
12.685
11.685
8.6851
4.6851
3.6851
1.6851
1.6851
1.6851
5.6851
4.6851
3.6851
1.6851
5.6851
5.6851
8.6851
15.685
16.685
17.685
15.685
18.685
19.685
17.685
17.685
16.685
11.685
11.685
11.685
15.685
19.685
20.685
22.685
21.685
20.685
16.685
15.685
12.685
12.685
13.685
15.685
15.685
12.685
7.6851
7.6851
7.6851
4.6851
0.68512
-0.31488
1.6851
4.6851
6.6851
7.6851
9.6851
9.6851
10.685
8.6851
4.6851
2.6851
-3.3149
-2.3149
-1.3149
-0.31488
1.6851
1.6851
0.68512
-3.3149
-8.3149
-14.315
-15.315
-13.315
-4.3149
0.68512
6.6851
7.6851
6.6851
4.6851
1.6851
1.6851
-1.3149
-3.3149
-4.3149
-2.3149
1.6851
6.6851
7.6851
11.685
11.685
9.6851
10.685
9.6851
13.685
19.685
22.685
28.685
38.685
48.685
62.685
81.685
90.685
92.685
83.685
59.685
19.685
-20.315
-51.315
-66.315
-66.315
-59.315
-49.315
-39.315
-34.315
-30.315
-24.315
-23.315
-26.315
-34.315
-45.315
-54.315
-53.315
-42.315
-32.315
-23.315
-17.315
-20.315
-24.315
-26.315
-32.315
-36.315
-38.315
-37.315
-30.315
-23.315
-17.315
-9.3149
-3.3149
2.6851
6.6851
6.6851
3.6851
-1.3149
-2.3149
-2.3149
0.68512
1.6851
6.6851
7.6851
10.685
10.685
11.685
10.685
9.6851
10.685
7.6851
5.6851
3.6851
0.68512
3.6851
3.6851
5.6851
3.6851
0.68512
2.6851
5.6851
7.6851
10.685
12.685
12.685
10.685
13.685
13.685
12.685
10.685
12.685
11.685
13.685
14.685
15.685
18.685
20.685
20.685
20.685
21.685
22.685
23.685
25.685
22.685
20.685
21.685
24.685
30.685
36.685
37.685
36.685
37.685
35.685
34.685
32.685
35.685
41.685
43.685
46.685
49.685
49.685
50.685
50.685
51.685
47.685
45.685
43.685
41.685
42.685
45.685
46.685
46.685
47.685
47.685
46.685
46.685
43.685
39.685
37.685
32.685
28.685
25.685
24.685
26.685
30.685
31.685
32.685
30.685
24.685
18.685
13.685
7.6851
4.6851
2.6851
3.6851
5.6851
8.6851
13.685
8.6851
8.6851
6.6851
0.68512
-0.31488
-2.3149
-8.3149
-8.3149
-8.3149
-5.3149
-5.3149
-3.3149
0.68512
1.6851
-0.31488
3.6851
7.6851
7.6851
6.6851
3.6851
0.68512
2.6851
9.6851
10.685
14.685
20.685
21.685
24.685
21.685
15.685
10.685
4.6851
2.6851
6.6851
8.6851
15.685
24.685
27.685
25.685
16.685
5.6851
0.68512
0.68512
4.6851
9.6851
14.685
19.685
22.685
18.685
17.685
13.685
9.6851
10.685
13.685
18.685
20.685
19.685
16.685
16.685
15.685
20.685
24.685
23.685
16.685
13.685
7.6851
8.6851
10.685
12.685
15.685
14.685
13.685
14.685
15.685
17.685
17.685
16.685
11.685
6.6851
3.6851
5.6851
9.6851
14.685
19.685
24.685
29.685
30.685
30.685
26.685
20.685
18.685
24.685
37.685
57.685
80.685
99.685
112.69
117.69
104.69
75.685
36.685
-4.3149
-32.315
-45.315
-47.315
-42.315
-34.315
-25.315
-20.315
-11.315
-9.3149
-11.315
-15.315
-22.315
-21.315
-21.315
-17.315
-14.315
-16.315
-19.315
-22.315
-23.315
-23.315
-24.315
-21.315
-19.315
-17.315
-13.315
-13.315
-15.315
-11.315
-9.3149
-2.3149
4.6851
12.685
15.685
17.685
16.685
16.685
14.685
12.685
12.685
14.685
16.685
17.685
19.685
22.685
22.685
20.685
14.685
14.685
14.685
16.685
14.685
13.685
12.685
14.685
16.685
20.685
21.685
24.685
24.685
27.685
25.685
26.685
24.685
21.685
22.685
20.685
23.685
27.685
29.685
30.685
29.685
28.685
29.685
31.685
35.685
37.685
34.685
34.685
34.685
32.685
29.685
30.685
32.685
35.685
37.685
47.685
54.685
57.685
57.685
58.685
62.685
63.685
63.685
60.685
58.685
57.685
58.685
60.685
64.685
68.685
72.685
73.685
72.685
71.685
66.685
61.685
57.685
56.685
55.685
50.685
45.685
44.685
44.685
46.685
46.685
47.685
42.685
34.685
31.685
25.685
19.685
17.685
18.685
17.685
21.685
21.685
21.685
20.685
22.685
22.685
24.685
25.685
22.685
16.685
7.6851
3.6851
0.68512
-1.3149
3.6851
9.6851
13.685
13.685
15.685
15.685
16.685
25.685
28.685
35.685
28.685
12.685
-4.3149
-12.315
-14.315
-6.3149
-1.3149
6.6851
11.685
13.685
14.685
14.685
14.685
12.685
10.685
10.685
10.685
8.6851
12.685
18.685
21.685
18.685
13.685
6.6851
-0.31488
-4.3149
-6.3149
-4.3149
-2.3149
1.6851
2.6851
5.6851
7.6851
13.685
18.685
16.685
17.685
16.685
15.685
14.685
11.685
8.6851
6.6851
8.6851
8.6851
7.6851
6.6851
3.6851
4.6851
6.6851
9.6851
10.685
13.685
15.685
13.685
11.685
3.6851
0.68512
-0.31488
4.6851
11.685
19.685
24.685
24.685
19.685
11.685
3.6851
-1.3149
-4.3149
-4.3149
-1.3149
5.6851
9.6851
17.685
20.685
23.685
24.685
22.685
15.685
6.6851
0.68512
2.6851
4.6851
7.6851
11.685
12.685
15.685
18.685
20.685
23.685
23.685
25.685
27.685
28.685
28.685
27.685
24.685
18.685
13.685
13.685
18.685
34.685
51.685
73.685
94.685
109.69
121.69
120.69
103.69
69.685
26.685
-11.315
-38.315
-52.315
-51.315
-46.315
-38.315
-29.315
-22.315
-17.315
-17.315
-24.315
-31.315
-40.315
-42.315
-34.315
-27.315
-20.315
-15.315
-16.315
-20.315
-25.315
-27.315
-25.315
-21.315
-19.315
-19.315
-17.315
-15.315
-9.3149
-4.3149
1.6851
7.6851
11.685
11.685
14.685
13.685
11.685
12.685
14.685
15.685
14.685
14.685
12.685
12.685
11.685
12.685
10.685
9.6851
8.6851
7.6851
9.6851
9.6851
8.6851
7.6851
8.6851
10.685
14.685
17.685
21.685
23.685
26.685
22.685
15.685
11.685
8.6851
8.6851
8.6851
11.685
14.685
18.685
21.685
25.685
28.685
27.685
27.685
27.685
23.685
26.685
26.685
28.685
32.685
33.685
34.685
35.685
35.685
33.685
35.685
38.685
43.685
48.685
51.685
51.685
50.685
50.685
50.685
49.685
48.685
46.685
50.685
53.685
55.685
57.685
57.685
58.685
59.685
61.685
61.685
58.685
52.685
48.685
45.685
42.685
40.685
38.685
35.685
37.685
34.685
33.685
32.685
28.685
27.685
26.685
28.685
27.685
24.685
21.685
19.685
17.685
19.685
17.685
14.685
12.685
11.685
10.685
8.6851
7.6851
4.6851
1.6851
-0.31488
3.6851
8.6851
16.685
20.685
23.685
19.685
7.6851
0.68512
-6.3149
-12.315
-9.3149
-5.3149
-1.3149
1.6851
7.6851
4.6851
6.6851
7.6851
5.6851
4.6851
5.6851
5.6851
1.6851
1.6851
2.6851
3.6851
8.6851
13.685
8.6851
8.6851
3.6851
2.6851
0.68512
2.6851
-0.31488
2.6851
5.6851
9.6851
13.685
16.685
17.685
21.685
20.685
16.685
13.685
8.6851
6.6851
6.6851
5.6851
8.6851
11.685
11.685
12.685
12.685
6.6851
8.6851
4.6851
8.6851
10.685
10.685
9.6851
8.6851
8.6851
9.6851
12.685
16.685
14.685
14.685
13.685
12.685
9.6851
9.6851
14.685
15.685
14.685
12.685
8.6851
4.6851
7.6851
6.6851
7.6851
7.6851
6.6851
10.685
12.685
14.685
15.685
13.685
12.685
8.6851
5.6851
6.6851
4.6851
6.6851
5.6851
5.6851
5.6851
6.6851
7.6851
10.685
13.685
18.685
22.685
21.685
20.685
21.685
21.685
21.685
24.685
31.685
40.685
55.685
73.685
90.685
106.69
119.69
124.69
116.69
88.685
45.685
2.6851
-33.315
-55.315
-63.315
-58.315
-51.315
-41.315
-34.315
-31.315
-26.315
-29.315
-31.315
-36.315
-39.315
-37.315
-31.315
-18.315
-7.3149
-4.3149
-8.3149
-15.315
-27.315
-30.315
-30.315
-27.315
-26.315
-27.315
-27.315
-22.315
-14.315
-7.3149
-1.3149
2.6851
4.6851
7.6851
5.6851
8.6851
10.685
9.6851
13.685
14.685
11.685
8.6851
6.6851
5.6851
3.6851
6.6851
10.685
14.685
16.685
17.685
16.685
16.685
13.685
9.6851
10.685
11.685
13.685
13.685
14.685
12.685
7.6851
6.6851
8.6851
14.685
17.685
19.685
20.685
17.685
14.685
12.685
10.685
14.685
18.685
26.685
31.685
34.685
39.685
35.685
34.685
34.685
34.685
33.685
34.685
37.685
38.685
43.685
47.685
53.685
60.685
59.685
56.685
51.685
52.685
54.685
56.685
58.685
58.685
56.685
59.685
58.685
54.685
49.685
48.685
47.685
46.685
48.685
48.685
45.685
44.685
43.685
43.685
40.685
38.685
32.685
27.685
25.685
25.685
26.685
22.685
16.685
10.685
8.6851
6.6851
11.685
11.685
12.685
11.685
9.6851
9.6851
6.6851
5.6851
2.6851
2.6851
7.6851
11.685
12.685
15.685
12.685
13.685
6.6851
-1.3149
-6.3149
-11.315
-7.3149
-3.3149
4.6851
9.6851
17.685
17.685
15.685
10.685
2.6851
-8.3149
-11.315
-15.315
-13.315
-10.315
-4.3149
-0.31488
0.68512
3.6851
3.6851
6.6851
5.6851
5.6851
5.6851
9.6851
14.685
13.685
9.6851
4.6851
0.68512
-3.3149
-3.3149
1.6851
7.6851
11.685
12.685
15.685
15.685
14.685
8.6851
3.6851
-1.3149
-0.31488
0.68512
1.6851
1.6851
-1.3149
-3.3149
-3.3149
-1.3149
1.6851
3.6851
7.6851
12.685
17.685
18.685
17.685
11.685
1.6851
-7.3149
-11.315
-12.315
-4.3149
1.6851
8.6851
18.685
20.685
17.685
11.685
1.6851
-3.3149
-8.3149
-9.3149
-4.3149
-0.31488
3.6851
5.6851
6.6851
9.6851
12.685
13.685
10.685
7.6851
1.6851
1.6851
0.68512
1.6851
3.6851
5.6851
4.6851
3.6851
1.6851
-1.3149
-0.31488
3.6851
5.6851
8.6851
14.685
17.685
18.685
23.685
30.685
43.685
60.685
85.685
109.69
133.69
151.69
154.69
140.69
102.69
49.685
-0.31488
-40.315
-63.315
-78.315
-77.315
-74.315
-68.315
-61.315
-50.315
-43.315
-40.315
-37.315
-41.315
-44.315
-48.315
-45.315
-41.315
-38.315
-35.315
-32.315
-33.315
-33.315
-29.315
-25.315
-23.315
-24.315
-27.315
-30.315
-34.315
-33.315
-31.315
-24.315
-14.315
-8.3149
0.68512
6.6851
5.6851
6.6851
5.6851
2.6851
2.6851
-0.31488
-0.31488
0.68512
1.6851
5.6851
8.6851
13.685
13.685
18.685
17.685
14.685
9.6851
7.6851
7.6851
3.6851
-0.31488
-4.3149
-8.3149
-3.3149
-1.3149
4.6851
9.6851
11.685
13.685
12.685
13.685
16.685
16.685
14.685
14.685
13.685
12.685
12.685
14.685
16.685
19.685
22.685
22.685
21.685
21.685
23.685
27.685
32.685
39.685
43.685
46.685
45.685
47.685
47.685
47.685
46.685
47.685
46.685
46.685
48.685
48.685
48.685
50.685
51.685
55.685
57.685
60.685
62.685
62.685
59.685
57.685
53.685
52.685
52.685
52.685
49.685
50.685
47.685
41.685
35.685
31.685
28.685
27.685
28.685
30.685
30.685
27.685
25.685
20.685
17.685
14.685
13.685
15.685
15.685
15.685
10.685
6.6851
3.6851
3.6851
2.6851
1.6851
0.68512
3.6851
6.6851
9.6851
10.685
8.6851
10.685
8.6851
10.685
6.6851
7.6851
2.6851
0.68512
-1.3149
-4.3149
-2.3149
1.6851
0.68512
3.6851
7.6851
1.6851
3.6851
0.68512
0.68512
-0.31488
-5.3149
-4.3149
-5.3149
-3.3149
-3.3149
-4.3149
-4.3149
-2.3149
1.6851
2.6851
3.6851
1.6851
4.6851
5.6851
5.6851
2.6851
4.6851
2.6851
4.6851
4.6851
8.6851
11.685
13.685
14.685
14.685
5.6851
3.6851
1.6851
3.6851
7.6851
10.685
10.685
11.685
6.6851
4.6851
2.6851
0.68512
-0.31488
1.6851
2.6851
1.6851
-0.31488
8.6851
13.685
14.685
16.685
9.6851
3.6851
-1.3149
-3.3149
-8.3149
-7.3149
-5.3149
1.6851
5.6851
8.6851
12.685
13.685
12.685
10.685
5.6851
7.6851
3.6851
5.6851
6.6851
4.6851
4.6851
7.6851
8.6851
3.6851
8.6851
7.6851
10.685
11.685
12.685
13.685
9.6851
9.6851
5.6851
5.6851
8.6851
7.6851
9.6851
11.685
11.685
15.685
19.685
24.685
32.685
41.685
57.685
76.685
101.69
127.69
149.69
163.69
163.69
145.69
103.69
53.685
1.6851
-39.315
-65.315
-73.315
-71.315
-64.315
-56.315
-46.315
-39.315
-37.315
-36.315
-35.315
-37.315
-34.315
-28.315
-22.315
-21.315
-20.315
-18.315
